*RAS_DATA_START
*RAS_HEADER_START
*DISP_LINE_COLOR "4294901760"
*FILE_COMMENT ""
*FILE_MD5 ""
*FILE_MEMO ""
*FILE_OPERATOR "Administrator"
*FILE_PACKAGE_NAME ""
*FILE_PART_ID "GeneralMeasurement"
*FILE_SAMPLE ""
*FILE_SYSTEM_NAME "SmartLab"
*FILE_TYPE "RAS_RAW"
*FILE_USERGROUP "Administrators"
*FILE_VERSION "1"
*HW_ATTACHMENT_ID "ATT0025"
*HW_ATTACHMENT_NAME "Standard"
*HW_ATTACHMENT_NAME_INTERNAL "Standard"
*HW_COUNTER_ID-0 "CUT0051"
*HW_COUNTER_ID-1 "CMC0020"
*HW_COUNTER_MONOCHRO_ID "CMC0020"
*HW_COUNTER_MONOCHRO_NAME "None"
*HW_COUNTER_MONOCHRO_NAME_INTERNAL "None"
*HW_COUNTER_NAME_INTERNAL "HyPix3000(H)"
*HW_COUNTER_NAME-0 "HyPix3000(H)"
*HW_COUNTER_NAME-1 "None"
*HW_COUNTER_SELECT_NAME "HyPix3000(H)"
*HW_EXTERNAL_CONTROLLER_NAME "None"
*HW_EXTERNAL_CONTROLLER_NAME_INTERNAL "None"
*HW_GONIOMETER_ID "GON0021"
*HW_GONIOMETER_NAME "StandardEnc"
*HW_GONIOMETER_NAME_INTERNAL "StandardEnc"
*HW_GONIOMETER_RADIUS-0 "90.0"
*HW_GONIOMETER_RADIUS-1 "114.0"
*HW_GONIOMETER_RADIUS-2 "190.0"
*HW_GONIOMETER_RADIUS-3 "300.0"
*HW_GONIOMETER_RADIUS-4 "187.0"
*HW_GONIOMETER_RADIUS-5 "300.0"
*HW_GONIOMETER_RADIUS-6 "113.0000"
*HW_GONIOMETER_RADIUS-7 "331.0"
*HW_I_CBO_ID "CBO0021"
*HW_I_CBO_NAME "CBO"
*HW_I_CBO_NAME_INTERNAL "CBO"
*HW_I_MONOCHRO_ID "ISO0021"
*HW_I_MONOCHRO_NAME "IPS_adaptor"
*HW_I_MONOCHRO_NAME_INTERNAL "IPS_adaptor"
*HW_I_OPT_ID-0 "CBO0021"
*HW_I_OPT_ID-1 "ISL0021"
*HW_I_PRIMARY_NAME_INTERNAL "Standard"
*HW_I_SLIT_ID "ISL0021"
*HW_I_SLIT_NAME "Auto"
*HW_I_SLIT_NAME_INTERNAL "Auto"
*HW_R_ATTENUATER_AUTOMODE "0"
*HW_R_ATTENUATER_ID "ATN0020"
*HW_R_ATTENUATER_NAME "No_unit"
*HW_R_ATTENUATOR_NAME_INTERNAL "No_unit"
*HW_R_OPT_ID-0 "RSS0022"
*HW_R_OPT_ID-1 "RCR0022"
*HW_R_OPT_ID-2 "RSO0021"
*HW_R_OPT_ID-3 "RRS0022"
*HW_R_OPT_ID-4 "ATN0020"
*HW_R_ROD_ID "RCR0022"
*HW_R_ROD_NAME "ROD_adaptor"
*HW_R_ROD_NAME_INTERNAL "ROD_adaptor"
*HW_R_RPS_ID "RSO0021"
*HW_R_RPS_NAME "RPS_adaptor"
*HW_R_RPS_NAME_INTERNAL "RPS_adaptor"
*HW_R_RS_ID "RRS0022"
*HW_R_RS_NAME "Virtual"
*HW_R_RS_NAME_INTERNAL "Virtual"
*HW_R_SS_ID "RSS0022"
*HW_R_SS_NAME "Auto_Zr"
*HW_R_SS_NAME_INTERNAL "Auto_Zr"
*HW_ROBOT_NAME "No_unit"
*HW_ROBOT_NAME_INTERNAL "No_unit"
*HW_SAMPLE_CAMERA_NAME "SampleCamera_Std"
*HW_SAMPLE_CAMERA_NAME_INTERNAL "SampleCamera_Std"
*HW_SAMPLE_HOLDER_ID "SMP0021"
*HW_SAMPLE_HOLDER_NAME "Z_ChiPhi"
*HW_SAMPLE_HOLDER_NAME_INTERNAL "Z_ChiPhi"
*HW_SAMPLE_NAME "WaferSample"
*HW_SAMPLE_NAME_INTERNAL "WaferSample"
*HW_SAMPLE_PLATE_NAME "ForWafer"
*HW_SAMPLE_PLATE_NAME_INTERNAL "ForWafer"
*HW_SAMPLE_SPACER_NAME "0-3mm"
*HW_SAMPLE_SPACER_NAME_INTERNAL "0-3mm"
*HW_USERINFO_CATALOG_NO ""
*HW_USERINFO_INSTRUMENT_ID ""
*HW_USERINFO_INSTRUMENT_NAME ""
*HW_USERINFO_MODEL ""
*HW_USERINFO_ORDER_NO ""
*HW_USERINFO_SERIAL_NO ""
*HW_USERINFO_VERIFY_INSTRUMENT_ID "00-07-fe-01-14-97"
*HW_VER_RCD_COUNTER_UNIT "1.0.1"
*HW_VER_RCD_CPU "3.2.2"
*HW_VER_RCD_FPGA "1.2.3"
*HW_VER_RCD_GONIO_UNIT "6.1.1"
*HW_VER_RCD_INCIDENT_UNIT "6.1.1"
*HW_VER_RCD_RECEIVING_UNIT "6.1.1"
*HW_VER_RCD_TYPE "RINC"
*HW_VER_XGC_CPU "3.2.2"
*HW_VER_XGC_CW "1.4.9"
*HW_VER_XGC_HV "1.4.9"
*HW_VER_XGC_RS1 "1.4.9"
*HW_VER_XGC_RS2 "N/A"
*HW_VER_XGC_RT "N/A"
*HW_VER_XGC_TYPE "RINC"
*HW_XG_CURRENT_UNIT "mA"
*HW_XG_FOCUS "0.4mm x 12mm"
*HW_XG_FOCUS_TYPE "LongFine"
*HW_XG_TARGET_ATOMIC_NUMBER "29"
*HW_XG_TARGET_NAME "Cu"
*HW_XG_TYPE "Hermetic"
*HW_XG_VOLTAGE_UNIT "kV"
*HW_XG_WAVE_LENGTH_ALPHA1 "1.540593"
*HW_XG_WAVE_LENGTH_ALPHA2 "1.544414"
*HW_XG_WAVE_LENGTH_BETA "1.392246"
*HW_XG_WAVE_LENGTH_UNIT "Angstrom"
*MEAS_COND_AXIS_NAME_INTERNAL-0 "ThetaS"
*MEAS_COND_AXIS_NAME_INTERNAL-1 "ThetaD"
*MEAS_COND_AXIS_NAME_INTERNAL-10 "CBOType"
*MEAS_COND_AXIS_NAME_INTERNAL-11 "CBO-M"
*MEAS_COND_AXIS_NAME_INTERNAL-12 "CBO"
*MEAS_COND_AXIS_NAME_INTERNAL-13 "IncidentSollerSlit"
*MEAS_COND_AXIS_NAME_INTERNAL-14 "IncidentSlitBox"
*MEAS_COND_AXIS_NAME_INTERNAL-15 "IncidentSlitBox-_Axis"
*MEAS_COND_AXIS_NAME_INTERNAL-16 "SlitDS"
*MEAS_COND_AXIS_NAME_INTERNAL-17 "Zs"
*MEAS_COND_AXIS_NAME_INTERNAL-18 "IncidentAxdSlit"
*MEAS_COND_AXIS_NAME_INTERNAL-19 "LLS"
*MEAS_COND_AXIS_NAME_INTERNAL-2 "TwoTheta"
*MEAS_COND_AXIS_NAME_INTERNAL-20 "DHLSlit"
*MEAS_COND_AXIS_NAME_INTERNAL-21 "Chi"
*MEAS_COND_AXIS_NAME_INTERNAL-22 "Phi"
*MEAS_COND_AXIS_NAME_INTERNAL-23 "Z"
*MEAS_COND_AXIS_NAME_INTERNAL-24 "Alpha"
*MEAS_COND_AXIS_NAME_INTERNAL-25 "Beta"
*MEAS_COND_AXIS_NAME_INTERNAL-26 "ReceivingSlitBox1"
*MEAS_COND_AXIS_NAME_INTERNAL-27 "ReceivingSlitBox1-_Axis"
*MEAS_COND_AXIS_NAME_INTERNAL-28 "SlitSS"
*MEAS_COND_AXIS_NAME_INTERNAL-29 "Zr"
*MEAS_COND_AXIS_NAME_INTERNAL-3 "Omega"
*MEAS_COND_AXIS_NAME_INTERNAL-30 "Filter"
*MEAS_COND_AXIS_NAME_INTERNAL-31 "PSA"
*MEAS_COND_AXIS_NAME_INTERNAL-32 "ReceivingSollerSlit"
*MEAS_COND_AXIS_NAME_INTERNAL-33 "ReceivingSlitBox2"
*MEAS_COND_AXIS_NAME_INTERNAL-34 "ReceivingSlitBox2-_Axis"
*MEAS_COND_AXIS_NAME_INTERNAL-35 "SlitRS"
*MEAS_COND_AXIS_NAME_INTERNAL-36 "ModuleSensorType"
*MEAS_COND_AXIS_NAME_INTERNAL-37 "PHA"
*MEAS_COND_AXIS_NAME_INTERNAL-38 "DetectorBeamStop"
*MEAS_COND_AXIS_NAME_INTERNAL-39 "DetectorFilter"
*MEAS_COND_AXIS_NAME_INTERNAL-4 "TwoThetaTheta"
*MEAS_COND_AXIS_NAME_INTERNAL-40 "DedicatedHolder"
*MEAS_COND_AXIS_NAME_INTERNAL-41 "Target_TargetTime"
*MEAS_COND_AXIS_NAME_INTERNAL-42 "Target_XrayOnTime"
*MEAS_COND_AXIS_NAME_INTERNAL-43 "Target_TMPTime"
*MEAS_COND_AXIS_NAME_INTERNAL-44 "Target_RPTime"
*MEAS_COND_AXIS_NAME_INTERNAL-45 "Target_FilamentTime"
*MEAS_COND_AXIS_NAME_INTERNAL-46 "Target_IG"
*MEAS_COND_AXIS_NAME_INTERNAL-47 "Target_GP"
*MEAS_COND_AXIS_NAME_INTERNAL-48 "Target_FC"
*MEAS_COND_AXIS_NAME_INTERNAL-49 "HVPS_HVPSTime"
*MEAS_COND_AXIS_NAME_INTERNAL-5 "TwoThetaOmega"
*MEAS_COND_AXIS_NAME_INTERNAL-50 "HVPS_Type1Time"
*MEAS_COND_AXIS_NAME_INTERNAL-51 "HVPS_Type2Time"
*MEAS_COND_AXIS_NAME_INTERNAL-52 "HVPS_Type3Time"
*MEAS_COND_AXIS_NAME_INTERNAL-53 "CW_IERTime"
*MEAS_COND_AXIS_NAME_INTERNAL-54 "CW_ECTime"
*MEAS_COND_AXIS_NAME_INTERNAL-55 "CW_Flow1"
*MEAS_COND_AXIS_NAME_INTERNAL-56 "CW_Temperature1"
*MEAS_COND_AXIS_NAME_INTERNAL-57 "CW_Pressure1"
*MEAS_COND_AXIS_NAME_INTERNAL-58 "CW_PressureIn"
*MEAS_COND_AXIS_NAME_INTERNAL-59 "CW_PressureOut"
*MEAS_COND_AXIS_NAME_INTERNAL-6 "OmegaTwoTheta"
*MEAS_COND_AXIS_NAME_INTERNAL-60 "CW_Flow2"
*MEAS_COND_AXIS_NAME_INTERNAL-61 "CW_Temperature2"
*MEAS_COND_AXIS_NAME_INTERNAL-62 "CW_Pressure2"
*MEAS_COND_AXIS_NAME_INTERNAL-63 "RE_EnclosureTemp"
*MEAS_COND_AXIS_NAME_INTERNAL-64 "RE_EnclosureHummidity"
*MEAS_COND_AXIS_NAME_INTERNAL-65 "RE_CabinetTemp"
*MEAS_COND_AXIS_NAME_INTERNAL-66 "RE_RPTemp"
*MEAS_COND_AXIS_NAME_INTERNAL-67 "RE_ShutterAXrayOnTime"
*MEAS_COND_AXIS_NAME_INTERNAL-68 "RE_ShutterATimes"
*MEAS_COND_AXIS_NAME_INTERNAL-69 "RE_ShutterAOpenCloseTime"
*MEAS_COND_AXIS_NAME_INTERNAL-7 "Ts"
*MEAS_COND_AXIS_NAME_INTERNAL-70 "RE_ShutterACloseOpenTime"
*MEAS_COND_AXIS_NAME_INTERNAL-71 "RE_ShutterBXrayOnTime"
*MEAS_COND_AXIS_NAME_INTERNAL-72 "RE_ShutterBTimes"
*MEAS_COND_AXIS_NAME_INTERNAL-73 "RE_ShutterBOpenCloseTime"
*MEAS_COND_AXIS_NAME_INTERNAL-74 "RE_ShutterBCloseOpenTime"
*MEAS_COND_AXIS_NAME_INTERNAL-75 "RE_XrayWarningRamp"
*MEAS_COND_AXIS_NAME_INTERNAL-76 "RE_ShutterAInstallation"
*MEAS_COND_AXIS_NAME_INTERNAL-77 "RE_ShutterARamp"
*MEAS_COND_AXIS_NAME_INTERNAL-78 "RE_ShutterBInstallation"
*MEAS_COND_AXIS_NAME_INTERNAL-79 "RE_ShutterBRamp"
*MEAS_COND_AXIS_NAME_INTERNAL-8 "PrimaryGeometry"
*MEAS_COND_AXIS_NAME_INTERNAL-80 "RE_ExtShutterCLS"
*MEAS_COND_AXIS_NAME_INTERNAL-81 "RE_ExtXrayOFF"
*MEAS_COND_AXIS_NAME_INTERNAL-82 "RE_ExtSafetyCircuit"
*MEAS_COND_AXIS_NAME_INTERNAL-83 "Version_CPU"
*MEAS_COND_AXIS_NAME_INTERNAL-84 "Version_RS1"
*MEAS_COND_AXIS_NAME_INTERNAL-85 "Version_RS2"
*MEAS_COND_AXIS_NAME_INTERNAL-86 "Version_HV"
*MEAS_COND_AXIS_NAME_INTERNAL-87 "Version_CW"
*MEAS_COND_AXIS_NAME_INTERNAL-88 "Version_RT"
*MEAS_COND_AXIS_NAME_INTERNAL-89 "Lens"
*MEAS_COND_AXIS_NAME_INTERNAL-9 "PrimaryMirrorType"
*MEAS_COND_AXIS_NAME_INTERNAL-90 "IncidentPrimary"
*MEAS_COND_AXIS_NAME_INTERNAL-91 "IncidentMonochromator"
*MEAS_COND_AXIS_NAME_INTERNAL-92 "ReceivingOptics"
*MEAS_COND_AXIS_NAME_INTERNAL-93 "CounterMonochromatorKind"
*MEAS_COND_AXIS_NAME-0 "ThetaS"
*MEAS_COND_AXIS_NAME-1 "ThetaD"
*MEAS_COND_AXIS_NAME-10 "CBOType"
*MEAS_COND_AXIS_NAME-11 "CBO-M"
*MEAS_COND_AXIS_NAME-12 "CBO"
*MEAS_COND_AXIS_NAME-13 "IncidentSollerSlit"
*MEAS_COND_AXIS_NAME-14 "IncidentSlitBox"
*MEAS_COND_AXIS_NAME-15 "IncidentSlitBox-_Axis"
*MEAS_COND_AXIS_NAME-16 "SlitDS"
*MEAS_COND_AXIS_NAME-17 "Zs"
*MEAS_COND_AXIS_NAME-18 "IncidentAxdSlit"
*MEAS_COND_AXIS_NAME-19 "LLS"
*MEAS_COND_AXIS_NAME-2 "TwoTheta"
*MEAS_COND_AXIS_NAME-20 "DHLSlit"
*MEAS_COND_AXIS_NAME-21 "Chi"
*MEAS_COND_AXIS_NAME-22 "Phi"
*MEAS_COND_AXIS_NAME-23 "Z"
*MEAS_COND_AXIS_NAME-24 "Alpha"
*MEAS_COND_AXIS_NAME-25 "Beta"
*MEAS_COND_AXIS_NAME-26 "ReceivingSlitBox1"
*MEAS_COND_AXIS_NAME-27 "ReceivingSlitBox1-_Axis"
*MEAS_COND_AXIS_NAME-28 "SlitSS"
*MEAS_COND_AXIS_NAME-29 "Zr"
*MEAS_COND_AXIS_NAME-3 "Omega"
*MEAS_COND_AXIS_NAME-30 "Filter"
*MEAS_COND_AXIS_NAME-31 "PSA"
*MEAS_COND_AXIS_NAME-32 "ReceivingSollerSlit"
*MEAS_COND_AXIS_NAME-33 "ReceivingSlitBox2"
*MEAS_COND_AXIS_NAME-34 "ReceivingSlitBox2-_Axis"
*MEAS_COND_AXIS_NAME-35 "SlitRS"
*MEAS_COND_AXIS_NAME-36 "ModuleSensorType"
*MEAS_COND_AXIS_NAME-37 "PHA"
*MEAS_COND_AXIS_NAME-38 "DetectorBeamStop"
*MEAS_COND_AXIS_NAME-39 "DetectorFilter"
*MEAS_COND_AXIS_NAME-4 "TwoThetaTheta"
*MEAS_COND_AXIS_NAME-40 "DedicatedHolder"
*MEAS_COND_AXIS_NAME-41 "Target_TargetTime"
*MEAS_COND_AXIS_NAME-42 "Target_XrayOnTime"
*MEAS_COND_AXIS_NAME-43 "Target_TMPTime"
*MEAS_COND_AXIS_NAME-44 "Target_RPTime"
*MEAS_COND_AXIS_NAME-45 "Target_FilamentTime"
*MEAS_COND_AXIS_NAME-46 "Target_IG"
*MEAS_COND_AXIS_NAME-47 "Target_GP"
*MEAS_COND_AXIS_NAME-48 "Target_FC"
*MEAS_COND_AXIS_NAME-49 "HVPS_HVPSTime"
*MEAS_COND_AXIS_NAME-5 "TwoThetaOmega"
*MEAS_COND_AXIS_NAME-50 "HVPS_Type1Time"
*MEAS_COND_AXIS_NAME-51 "HVPS_Type2Time"
*MEAS_COND_AXIS_NAME-52 "HVPS_Type3Time"
*MEAS_COND_AXIS_NAME-53 "CW_IERTime"
*MEAS_COND_AXIS_NAME-54 "CW_ECTime"
*MEAS_COND_AXIS_NAME-55 "CW_Flow1"
*MEAS_COND_AXIS_NAME-56 "CW_Temperature1"
*MEAS_COND_AXIS_NAME-57 "CW_Pressure1"
*MEAS_COND_AXIS_NAME-58 "CW_PressureIn"
*MEAS_COND_AXIS_NAME-59 "CW_PressureOut"
*MEAS_COND_AXIS_NAME-6 "OmegaTwoTheta"
*MEAS_COND_AXIS_NAME-60 "CW_Flow2"
*MEAS_COND_AXIS_NAME-61 "CW_Temperature2"
*MEAS_COND_AXIS_NAME-62 "CW_Pressure2"
*MEAS_COND_AXIS_NAME-63 "RE_EnclosureTemp"
*MEAS_COND_AXIS_NAME-64 "RE_EnclosureHummidity"
*MEAS_COND_AXIS_NAME-65 "RE_CabinetTemp"
*MEAS_COND_AXIS_NAME-66 "RE_RPTemp"
*MEAS_COND_AXIS_NAME-67 "RE_ShutterAXrayOnTime"
*MEAS_COND_AXIS_NAME-68 "RE_ShutterATimes"
*MEAS_COND_AXIS_NAME-69 "RE_ShutterAOpenCloseTime"
*MEAS_COND_AXIS_NAME-7 "Ts"
*MEAS_COND_AXIS_NAME-70 "RE_ShutterACloseOpenTime"
*MEAS_COND_AXIS_NAME-71 "RE_ShutterBXrayOnTime"
*MEAS_COND_AXIS_NAME-72 "RE_ShutterBTimes"
*MEAS_COND_AXIS_NAME-73 "RE_ShutterBOpenCloseTime"
*MEAS_COND_AXIS_NAME-74 "RE_ShutterBCloseOpenTime"
*MEAS_COND_AXIS_NAME-75 "RE_XrayWarningRamp"
*MEAS_COND_AXIS_NAME-76 "RE_ShutterAInstallation"
*MEAS_COND_AXIS_NAME-77 "RE_ShutterARamp"
*MEAS_COND_AXIS_NAME-78 "RE_ShutterBInstallation"
*MEAS_COND_AXIS_NAME-79 "RE_ShutterBRamp"
*MEAS_COND_AXIS_NAME-8 "PrimaryGeometry"
*MEAS_COND_AXIS_NAME-80 "RE_ExtShutterCLS"
*MEAS_COND_AXIS_NAME-81 "RE_ExtXrayOFF"
*MEAS_COND_AXIS_NAME-82 "RE_ExtSafetyCircuit"
*MEAS_COND_AXIS_NAME-83 "Version_CPU"
*MEAS_COND_AXIS_NAME-84 "Version_RS1"
*MEAS_COND_AXIS_NAME-85 "Version_RS2"
*MEAS_COND_AXIS_NAME-86 "Version_HV"
*MEAS_COND_AXIS_NAME-87 "Version_CW"
*MEAS_COND_AXIS_NAME-88 "Version_RT"
*MEAS_COND_AXIS_NAME-89 "Lens"
*MEAS_COND_AXIS_NAME-9 "PrimaryMirrorType"
*MEAS_COND_AXIS_NAME-90 "IncidentPrimary"
*MEAS_COND_AXIS_NAME-91 "IncidentMonochromator"
*MEAS_COND_AXIS_NAME-92 "ReceivingOptics"
*MEAS_COND_AXIS_NAME-93 "CounterMonochromatorKind"
*MEAS_COND_AXIS_OFFSET-0 "1.5548"
*MEAS_COND_AXIS_OFFSET-1 "-0.2629"
*MEAS_COND_AXIS_OFFSET-10 "0"
*MEAS_COND_AXIS_OFFSET-11 "0"
*MEAS_COND_AXIS_OFFSET-12 "0"
*MEAS_COND_AXIS_OFFSET-13 "0"
*MEAS_COND_AXIS_OFFSET-14 "0"
*MEAS_COND_AXIS_OFFSET-15 "0"
*MEAS_COND_AXIS_OFFSET-16 "0"
*MEAS_COND_AXIS_OFFSET-17 "0"
*MEAS_COND_AXIS_OFFSET-18 "0"
*MEAS_COND_AXIS_OFFSET-19 "0"
*MEAS_COND_AXIS_OFFSET-2 "1.2919"
*MEAS_COND_AXIS_OFFSET-20 "0"
*MEAS_COND_AXIS_OFFSET-21 "0"
*MEAS_COND_AXIS_OFFSET-22 "0"
*MEAS_COND_AXIS_OFFSET-23 "0"
*MEAS_COND_AXIS_OFFSET-24 "0"
*MEAS_COND_AXIS_OFFSET-25 "0"
*MEAS_COND_AXIS_OFFSET-26 "0"
*MEAS_COND_AXIS_OFFSET-27 "0"
*MEAS_COND_AXIS_OFFSET-28 "0"
*MEAS_COND_AXIS_OFFSET-29 "0"
*MEAS_COND_AXIS_OFFSET-3 "1.5548"
*MEAS_COND_AXIS_OFFSET-30 "0"
*MEAS_COND_AXIS_OFFSET-31 "0"
*MEAS_COND_AXIS_OFFSET-32 "0"
*MEAS_COND_AXIS_OFFSET-33 "0"
*MEAS_COND_AXIS_OFFSET-34 "0"
*MEAS_COND_AXIS_OFFSET-35 "0"
*MEAS_COND_AXIS_OFFSET-36 "0"
*MEAS_COND_AXIS_OFFSET-37 "0"
*MEAS_COND_AXIS_OFFSET-38 "0"
*MEAS_COND_AXIS_OFFSET-39 "0"
*MEAS_COND_AXIS_OFFSET-4 "0"
*MEAS_COND_AXIS_OFFSET-40 "0"
*MEAS_COND_AXIS_OFFSET-41 "0"
*MEAS_COND_AXIS_OFFSET-42 "0"
*MEAS_COND_AXIS_OFFSET-43 "0"
*MEAS_COND_AXIS_OFFSET-44 "0"
*MEAS_COND_AXIS_OFFSET-45 "0"
*MEAS_COND_AXIS_OFFSET-46 "0"
*MEAS_COND_AXIS_OFFSET-47 "0"
*MEAS_COND_AXIS_OFFSET-48 "0"
*MEAS_COND_AXIS_OFFSET-49 "0"
*MEAS_COND_AXIS_OFFSET-5 "0"
*MEAS_COND_AXIS_OFFSET-50 "0"
*MEAS_COND_AXIS_OFFSET-51 "0"
*MEAS_COND_AXIS_OFFSET-52 "0"
*MEAS_COND_AXIS_OFFSET-53 "0"
*MEAS_COND_AXIS_OFFSET-54 "0"
*MEAS_COND_AXIS_OFFSET-55 "0"
*MEAS_COND_AXIS_OFFSET-56 "0"
*MEAS_COND_AXIS_OFFSET-57 "0"
*MEAS_COND_AXIS_OFFSET-58 "0"
*MEAS_COND_AXIS_OFFSET-59 "0"
*MEAS_COND_AXIS_OFFSET-6 "0"
*MEAS_COND_AXIS_OFFSET-60 "0"
*MEAS_COND_AXIS_OFFSET-61 "0"
*MEAS_COND_AXIS_OFFSET-62 "0"
*MEAS_COND_AXIS_OFFSET-63 "0"
*MEAS_COND_AXIS_OFFSET-64 "0"
*MEAS_COND_AXIS_OFFSET-65 "0"
*MEAS_COND_AXIS_OFFSET-66 "0"
*MEAS_COND_AXIS_OFFSET-67 "0"
*MEAS_COND_AXIS_OFFSET-68 "0"
*MEAS_COND_AXIS_OFFSET-69 "0"
*MEAS_COND_AXIS_OFFSET-7 "0"
*MEAS_COND_AXIS_OFFSET-70 "0"
*MEAS_COND_AXIS_OFFSET-71 "0"
*MEAS_COND_AXIS_OFFSET-72 "0"
*MEAS_COND_AXIS_OFFSET-73 "0"
*MEAS_COND_AXIS_OFFSET-74 "0"
*MEAS_COND_AXIS_OFFSET-75 "0"
*MEAS_COND_AXIS_OFFSET-76 "0"
*MEAS_COND_AXIS_OFFSET-77 "0"
*MEAS_COND_AXIS_OFFSET-78 "0"
*MEAS_COND_AXIS_OFFSET-79 "0"
*MEAS_COND_AXIS_OFFSET-8 "0"
*MEAS_COND_AXIS_OFFSET-80 "0"
*MEAS_COND_AXIS_OFFSET-81 "0"
*MEAS_COND_AXIS_OFFSET-82 "0"
*MEAS_COND_AXIS_OFFSET-83 "0"
*MEAS_COND_AXIS_OFFSET-84 "0"
*MEAS_COND_AXIS_OFFSET-85 "0"
*MEAS_COND_AXIS_OFFSET-86 "0"
*MEAS_COND_AXIS_OFFSET-87 "0"
*MEAS_COND_AXIS_OFFSET-88 "0"
*MEAS_COND_AXIS_OFFSET-89 "0"
*MEAS_COND_AXIS_OFFSET-9 "0"
*MEAS_COND_AXIS_OFFSET-90 "0"
*MEAS_COND_AXIS_OFFSET-91 "0"
*MEAS_COND_AXIS_OFFSET-92 "0"
*MEAS_COND_AXIS_OFFSET-93 "0"
*MEAS_COND_AXIS_POSITION-0 "0.0000"
*MEAS_COND_AXIS_POSITION-1 "0.0000"
*MEAS_COND_AXIS_POSITION-10 "Type1"
*MEAS_COND_AXIS_POSITION-11 "0"
*MEAS_COND_AXIS_POSITION-12 "PB"
*MEAS_COND_AXIS_POSITION-13 "Soller_slit_2.5deg"
*MEAS_COND_AXIS_POSITION-14 "1.000mm"
*MEAS_COND_AXIS_POSITION-15 "1.000000"
*MEAS_COND_AXIS_POSITION-16 "1.000mm"
*MEAS_COND_AXIS_POSITION-17 "-0.6371875"
*MEAS_COND_AXIS_POSITION-18 "5mm"
*MEAS_COND_AXIS_POSITION-19 "5mm"
*MEAS_COND_AXIS_POSITION-2 "0.0000"
*MEAS_COND_AXIS_POSITION-20 "5mm"
*MEAS_COND_AXIS_POSITION-21 "0.000"
*MEAS_COND_AXIS_POSITION-22 "0.000"
*MEAS_COND_AXIS_POSITION-23 "-0.5876"
*MEAS_COND_AXIS_POSITION-24 "90.000"
*MEAS_COND_AXIS_POSITION-25 "0.000"
*MEAS_COND_AXIS_POSITION-26 "1.000mm"
*MEAS_COND_AXIS_POSITION-27 "1.000000"
*MEAS_COND_AXIS_POSITION-28 "1.000mm"
*MEAS_COND_AXIS_POSITION-29 "-0.0084375"
*MEAS_COND_AXIS_POSITION-3 "0.0000"
*MEAS_COND_AXIS_POSITION-30 "Cu_K-beta"
*MEAS_COND_AXIS_POSITION-31 "PSA_open"
*MEAS_COND_AXIS_POSITION-32 "Soller_slit_2.5deg"
*MEAS_COND_AXIS_POSITION-33 "1.100mm"
*MEAS_COND_AXIS_POSITION-34 "1.1"
*MEAS_COND_AXIS_POSITION-35 "1.100mm"
*MEAS_COND_AXIS_POSITION-36 "AC"
*MEAS_COND_AXIS_POSITION-37 ""
*MEAS_COND_AXIS_POSITION-38 "None"
*MEAS_COND_AXIS_POSITION-39 "None"
*MEAS_COND_AXIS_POSITION-4 "0.0000"
*MEAS_COND_AXIS_POSITION-40 "None"
*MEAS_COND_AXIS_POSITION-41 ""
*MEAS_COND_AXIS_POSITION-42 ""
*MEAS_COND_AXIS_POSITION-43 ""
*MEAS_COND_AXIS_POSITION-44 ""
*MEAS_COND_AXIS_POSITION-45 ""
*MEAS_COND_AXIS_POSITION-46 ""
*MEAS_COND_AXIS_POSITION-47 ""
*MEAS_COND_AXIS_POSITION-48 ""
*MEAS_COND_AXIS_POSITION-49 ""
*MEAS_COND_AXIS_POSITION-5 "0.0000"
*MEAS_COND_AXIS_POSITION-50 ""
*MEAS_COND_AXIS_POSITION-51 ""
*MEAS_COND_AXIS_POSITION-52 ""
*MEAS_COND_AXIS_POSITION-53 ""
*MEAS_COND_AXIS_POSITION-54 ""
*MEAS_COND_AXIS_POSITION-55 ""
*MEAS_COND_AXIS_POSITION-56 ""
*MEAS_COND_AXIS_POSITION-57 ""
*MEAS_COND_AXIS_POSITION-58 ""
*MEAS_COND_AXIS_POSITION-59 ""
*MEAS_COND_AXIS_POSITION-6 "0.0000"
*MEAS_COND_AXIS_POSITION-60 ""
*MEAS_COND_AXIS_POSITION-61 ""
*MEAS_COND_AXIS_POSITION-62 ""
*MEAS_COND_AXIS_POSITION-63 ""
*MEAS_COND_AXIS_POSITION-64 ""
*MEAS_COND_AXIS_POSITION-65 ""
*MEAS_COND_AXIS_POSITION-66 ""
*MEAS_COND_AXIS_POSITION-67 ""
*MEAS_COND_AXIS_POSITION-68 ""
*MEAS_COND_AXIS_POSITION-69 ""
*MEAS_COND_AXIS_POSITION-7 "0.4552500"
*MEAS_COND_AXIS_POSITION-70 ""
*MEAS_COND_AXIS_POSITION-71 ""
*MEAS_COND_AXIS_POSITION-72 ""
*MEAS_COND_AXIS_POSITION-73 ""
*MEAS_COND_AXIS_POSITION-74 ""
*MEAS_COND_AXIS_POSITION-75 ""
*MEAS_COND_AXIS_POSITION-76 ""
*MEAS_COND_AXIS_POSITION-77 ""
*MEAS_COND_AXIS_POSITION-78 ""
*MEAS_COND_AXIS_POSITION-79 ""
*MEAS_COND_AXIS_POSITION-8 "Right"
*MEAS_COND_AXIS_POSITION-80 ""
*MEAS_COND_AXIS_POSITION-81 ""
*MEAS_COND_AXIS_POSITION-82 ""
*MEAS_COND_AXIS_POSITION-83 ""
*MEAS_COND_AXIS_POSITION-84 ""
*MEAS_COND_AXIS_POSITION-85 ""
*MEAS_COND_AXIS_POSITION-86 ""
*MEAS_COND_AXIS_POSITION-87 ""
*MEAS_COND_AXIS_POSITION-88 ""
*MEAS_COND_AXIS_POSITION-89 "1"
*MEAS_COND_AXIS_POSITION-9 "None"
*MEAS_COND_AXIS_POSITION-90 "Standard"
*MEAS_COND_AXIS_POSITION-91 "IPS_adaptor"
*MEAS_COND_AXIS_POSITION-92 "PSA_open"
*MEAS_COND_AXIS_POSITION-93 "None"
*MEAS_COND_AXIS_UNIT-0 "deg"
*MEAS_COND_AXIS_UNIT-1 "deg"
*MEAS_COND_AXIS_UNIT-10 ""
*MEAS_COND_AXIS_UNIT-11 "pulse"
*MEAS_COND_AXIS_UNIT-12 ""
*MEAS_COND_AXIS_UNIT-13 ""
*MEAS_COND_AXIS_UNIT-14 ""
*MEAS_COND_AXIS_UNIT-15 "mm"
*MEAS_COND_AXIS_UNIT-16 ""
*MEAS_COND_AXIS_UNIT-17 "mm"
*MEAS_COND_AXIS_UNIT-18 ""
*MEAS_COND_AXIS_UNIT-19 ""
*MEAS_COND_AXIS_UNIT-2 "deg"
*MEAS_COND_AXIS_UNIT-20 ""
*MEAS_COND_AXIS_UNIT-21 "deg"
*MEAS_COND_AXIS_UNIT-22 "deg"
*MEAS_COND_AXIS_UNIT-23 "mm"
*MEAS_COND_AXIS_UNIT-24 "deg"
*MEAS_COND_AXIS_UNIT-25 "deg"
*MEAS_COND_AXIS_UNIT-26 ""
*MEAS_COND_AXIS_UNIT-27 "mm"
*MEAS_COND_AXIS_UNIT-28 ""
*MEAS_COND_AXIS_UNIT-29 "mm"
*MEAS_COND_AXIS_UNIT-3 "deg"
*MEAS_COND_AXIS_UNIT-30 ""
*MEAS_COND_AXIS_UNIT-31 ""
*MEAS_COND_AXIS_UNIT-32 ""
*MEAS_COND_AXIS_UNIT-33 ""
*MEAS_COND_AXIS_UNIT-34 "mm"
*MEAS_COND_AXIS_UNIT-35 ""
*MEAS_COND_AXIS_UNIT-36 ""
*MEAS_COND_AXIS_UNIT-37 "keV"
*MEAS_COND_AXIS_UNIT-38 ""
*MEAS_COND_AXIS_UNIT-39 ""
*MEAS_COND_AXIS_UNIT-4 "deg"
*MEAS_COND_AXIS_UNIT-40 ""
*MEAS_COND_AXIS_UNIT-41 "H"
*MEAS_COND_AXIS_UNIT-42 "H"
*MEAS_COND_AXIS_UNIT-43 "H"
*MEAS_COND_AXIS_UNIT-44 "H"
*MEAS_COND_AXIS_UNIT-45 "H"
*MEAS_COND_AXIS_UNIT-46 "mV"
*MEAS_COND_AXIS_UNIT-47 "V"
*MEAS_COND_AXIS_UNIT-48 "V"
*MEAS_COND_AXIS_UNIT-49 "H"
*MEAS_COND_AXIS_UNIT-5 "deg"
*MEAS_COND_AXIS_UNIT-50 "H"
*MEAS_COND_AXIS_UNIT-51 "H"
*MEAS_COND_AXIS_UNIT-52 "H"
*MEAS_COND_AXIS_UNIT-53 "H"
*MEAS_COND_AXIS_UNIT-54 "uS/m"
*MEAS_COND_AXIS_UNIT-55 "L/min"
*MEAS_COND_AXIS_UNIT-56 "degree"
*MEAS_COND_AXIS_UNIT-57 "MPa"
*MEAS_COND_AXIS_UNIT-58 "MPa"
*MEAS_COND_AXIS_UNIT-59 "MPa"
*MEAS_COND_AXIS_UNIT-6 "deg"
*MEAS_COND_AXIS_UNIT-60 "L/min"
*MEAS_COND_AXIS_UNIT-61 "C"
*MEAS_COND_AXIS_UNIT-62 "MPa"
*MEAS_COND_AXIS_UNIT-63 "degree"
*MEAS_COND_AXIS_UNIT-64 "percent"
*MEAS_COND_AXIS_UNIT-65 "degree"
*MEAS_COND_AXIS_UNIT-66 "C"
*MEAS_COND_AXIS_UNIT-67 "H"
*MEAS_COND_AXIS_UNIT-68 "time"
*MEAS_COND_AXIS_UNIT-69 "msec"
*MEAS_COND_AXIS_UNIT-7 "mm"
*MEAS_COND_AXIS_UNIT-70 "msec"
*MEAS_COND_AXIS_UNIT-71 "H"
*MEAS_COND_AXIS_UNIT-72 "times"
*MEAS_COND_AXIS_UNIT-73 "msec"
*MEAS_COND_AXIS_UNIT-74 "msec"
*MEAS_COND_AXIS_UNIT-75 "-"
*MEAS_COND_AXIS_UNIT-76 "-"
*MEAS_COND_AXIS_UNIT-77 "-"
*MEAS_COND_AXIS_UNIT-78 ""
*MEAS_COND_AXIS_UNIT-79 "-"
*MEAS_COND_AXIS_UNIT-8 ""
*MEAS_COND_AXIS_UNIT-80 "-"
*MEAS_COND_AXIS_UNIT-81 "-"
*MEAS_COND_AXIS_UNIT-82 ""
*MEAS_COND_AXIS_UNIT-83 ""
*MEAS_COND_AXIS_UNIT-84 ""
*MEAS_COND_AXIS_UNIT-85 ""
*MEAS_COND_AXIS_UNIT-86 ""
*MEAS_COND_AXIS_UNIT-87 ""
*MEAS_COND_AXIS_UNIT-88 ""
*MEAS_COND_AXIS_UNIT-89 ""
*MEAS_COND_AXIS_UNIT-9 ""
*MEAS_COND_AXIS_UNIT-90 ""
*MEAS_COND_AXIS_UNIT-91 ""
*MEAS_COND_AXIS_UNIT-92 ""
*MEAS_COND_AXIS_UNIT-93 ""
*MEAS_COND_OPT_ATTR "PB"
*MEAS_COND_OPT_NAME "User defined settings"
*MEAS_COND_XG_CURRENT "40"
*MEAS_COND_XG_VOLTAGE "40"
*MEAS_COND_XG_WAVE_TYPE "Ka"
*MEAS_DATA_COUNT "7001"
*MEAS_SCAN_AXIS_X "TwoThetaTheta"
*MEAS_SCAN_AXIS_X_INTERNAL "TwoThetaTheta"
*MEAS_SCAN_END_TIME "03/08/2023 17:11:07"
*MEAS_SCAN_MODE "CONTINUOUS"
*MEAS_SCAN_MODE_INTERNAL "CONTINUOUS"
*MEAS_SCAN_RESOLUTION_X "0.0002"
*MEAS_SCAN_SPEED "2.4000"
*MEAS_SCAN_SPEED_UNIT "deg/min"
*MEAS_SCAN_START "10.0000"
*MEAS_SCAN_START_TIME "03/08/2023 16:41:37"
*MEAS_SCAN_STEP "0.0100"
*MEAS_SCAN_STOP "80.0000"
*MEAS_SCAN_UNIT_X "deg"
*MEAS_SCAN_UNIT_Y "counts"
*RAS_HEADER_END
*RAS_INT_START
10.0000 12.4018 1.0000
10.0100 19.2600 1.0000
10.0200 22.1645 1.0000
10.0300 14.1869 1.0000
10.0400 23.4814 1.0000
10.0500 10.7230 1.0000
10.0600 22.4628 1.0000
10.0700 26.0116 1.0000
10.0800 17.3998 1.0000
10.0900 22.4873 1.0000
10.1000 25.4860 1.0000
10.1100 23.7701 1.0000
10.1200 23.5617 1.0000
10.1300 15.2823 1.0000
10.1400 19.4422 1.0000
10.1500 9.0732 1.0000
10.1600 19.4689 1.0000
10.1700 26.2419 1.0000
10.1800 22.1564 1.0000
10.1900 22.9404 1.0000
10.2000 10.2390 1.0000
10.2100 18.9156 1.0000
10.2200 22.5110 1.0000
10.2300 21.8387 1.0000
10.2400 17.3461 1.0000
10.2500 20.8208 1.0000
10.2600 16.5054 1.0000
10.2700 19.5683 1.0000
10.2800 24.4752 1.0000
10.2900 21.9968 1.0000
10.3000 23.5030 1.0000
10.3100 23.2852 1.0000
10.3200 19.2909 1.0000
10.3300 18.8134 1.0000
10.3400 16.0122 1.0000
10.3500 18.3335 1.0000
10.3600 23.6569 1.0000
10.3700 23.5746 1.0000
10.3800 16.2678 1.0000
10.3900 18.7425 1.0000
10.4000 19.1379 1.0000
10.4100 20.7992 1.0000
10.4200 20.7476 1.0000
10.4300 19.7121 1.0000
10.4400 20.5920 1.0000
10.4500 20.5073 1.0000
10.4600 18.3897 1.0000
10.4700 25.4746 1.0000
10.4800 13.0643 1.0000
10.4900 12.7809 1.0000
10.5000 17.6478 1.0000
10.5100 14.8770 1.0000
10.5200 20.1308 1.0000
10.5300 25.6583 1.0000
10.5400 16.0429 1.0000
10.5500 24.2123 1.0000
10.5600 17.3594 1.0000
10.5700 28.6726 1.0000
10.5800 25.8763 1.0000
10.5900 30.0783 1.0000
10.6000 15.4084 1.0000
10.6100 21.3987 1.0000
10.6200 23.9678 1.0000
10.6300 10.7509 1.0000
10.6400 15.2205 1.0000
10.6500 18.4786 1.0000
10.6600 19.8045 1.0000
10.6700 19.2339 1.0000
10.6800 19.5519 1.0000
10.6900 14.4836 1.0000
10.7000 18.1003 1.0000
10.7100 24.6535 1.0000
10.7200 19.2787 1.0000
10.7300 20.9845 1.0000
10.7400 17.3964 1.0000
10.7500 17.6531 1.0000
10.7600 18.1306 1.0000
10.7700 18.1136 1.0000
10.7800 15.9483 1.0000
10.7900 21.5936 1.0000
10.8000 17.7112 1.0000
10.8100 22.3282 1.0000
10.8200 21.9734 1.0000
10.8300 17.5601 1.0000
10.8400 28.2174 1.0000
10.8500 16.5186 1.0000
10.8600 28.9984 1.0000
10.8700 12.4004 1.0000
10.8800 13.2849 1.0000
10.8900 25.2271 1.0000
10.9000 15.0897 1.0000
10.9100 11.5137 1.0000
10.9200 16.8430 1.0000
10.9300 21.3673 1.0000
10.9400 20.4418 1.0000
10.9500 15.9866 1.0000
10.9600 18.2553 1.0000
10.9700 18.5191 1.0000
10.9800 11.7990 1.0000
10.9900 21.5114 1.0000
11.0000 15.9354 1.0000
11.0100 24.0584 1.0000
11.0200 17.9694 1.0000
11.0300 17.0998 1.0000
11.0400 22.1084 1.0000
11.0500 8.2312 1.0000
11.0600 23.7421 1.0000
11.0700 19.4432 1.0000
11.0800 22.0727 1.0000
11.0900 23.0592 1.0000
11.1000 26.2895 1.0000
11.1100 18.4319 1.0000
11.1200 20.6804 1.0000
11.1300 15.2547 1.0000
11.1400 19.4068 1.0000
11.1500 19.2436 1.0000
11.1600 12.9606 1.0000
11.1700 22.7957 1.0000
11.1800 17.1958 1.0000
11.1900 17.5938 1.0000
11.2000 16.3471 1.0000
11.2100 22.9489 1.0000
11.2200 17.1688 1.0000
11.2300 11.8433 1.0000
11.2400 12.1186 1.0000
11.2500 16.5603 1.0000
11.2600 21.8189 1.0000
11.2700 11.6208 1.0000
11.2800 25.1064 1.0000
11.2900 19.2289 1.0000
11.3000 19.2821 1.0000
11.3100 21.7566 1.0000
11.3200 22.5072 1.0000
11.3300 25.6221 1.0000
11.3400 23.2289 1.0000
11.3500 22.2128 1.0000
11.3600 17.6489 1.0000
11.3700 20.2885 1.0000
11.3800 16.3827 1.0000
11.3900 21.8934 1.0000
11.4000 21.1197 1.0000
11.4100 20.1688 1.0000
11.4200 12.3456 1.0000
11.4300 20.3673 1.0000
11.4400 25.3176 1.0000
11.4500 21.0687 1.0000
11.4600 24.0148 1.0000
11.4700 15.1157 1.0000
11.4800 18.2484 1.0000
11.4900 16.0831 1.0000
11.5000 22.2279 1.0000
11.5100 24.5020 1.0000
11.5200 17.3861 1.0000
11.5300 21.1326 1.0000
11.5400 13.1617 1.0000
11.5500 17.6432 1.0000
11.5600 17.6553 1.0000
11.5700 24.8724 1.0000
11.5800 18.4440 1.0000
11.5900 29.1201 1.0000
11.6000 21.6153 1.0000
11.6100 20.2201 1.0000
11.6200 19.3733 1.0000
11.6300 33.0925 1.0000
11.6400 23.3544 1.0000
11.6500 23.0210 1.0000
11.6600 16.1227 1.0000
11.6700 17.9622 1.0000
11.6800 18.0772 1.0000
11.6900 15.8558 1.0000
11.7000 27.9246 1.0000
11.7100 25.6225 1.0000
11.7200 25.1111 1.0000
11.7300 23.2497 1.0000
11.7400 22.0462 1.0000
11.7500 19.7381 1.0000
11.7600 21.5030 1.0000
11.7700 15.2835 1.0000
11.7800 13.8196 1.0000
11.7900 13.8944 1.0000
11.8000 20.3753 1.0000
11.8100 29.0820 1.0000
11.8200 23.2633 1.0000
11.8300 17.2465 1.0000
11.8400 16.8962 1.0000
11.8500 20.9143 1.0000
11.8600 18.8272 1.0000
11.8700 19.4640 1.0000
11.8800 19.0640 1.0000
11.8900 12.9858 1.0000
11.9000 18.2428 1.0000
11.9100 25.4065 1.0000
11.9200 24.3363 1.0000
11.9300 12.4801 1.0000
11.9400 16.7671 1.0000
11.9500 19.7983 1.0000
11.9600 19.4876 1.0000
11.9700 21.1684 1.0000
11.9800 21.4739 1.0000
11.9900 16.6753 1.0000
12.0000 23.7862 1.0000
12.0100 22.0933 1.0000
12.0200 16.1932 1.0000
12.0300 24.9592 1.0000
12.0400 20.2260 1.0000
12.0500 13.5030 1.0000
12.0600 24.9720 1.0000
12.0700 17.4192 1.0000
12.0800 13.6978 1.0000
12.0900 24.3898 1.0000
12.1000 19.1172 1.0000
12.1100 12.1690 1.0000
12.1200 29.3307 1.0000
12.1300 23.6266 1.0000
12.1400 20.4956 1.0000
12.1500 23.3834 1.0000
12.1600 26.3342 1.0000
12.1700 12.8427 1.0000
12.1800 25.6355 1.0000
12.1900 21.3316 1.0000
12.2000 18.8827 1.0000
12.2100 24.2490 1.0000
12.2200 20.5023 1.0000
12.2300 23.0995 1.0000
12.2400 22.6214 1.0000
12.2500 26.9357 1.0000
12.2600 21.0998 1.0000
12.2700 29.8012 1.0000
12.2800 32.7251 1.0000
12.2900 27.9755 1.0000
12.3000 27.4399 1.0000
12.3100 18.4339 1.0000
12.3200 17.7190 1.0000
12.3300 21.3554 1.0000
12.3400 14.8581 1.0000
12.3500 18.9184 1.0000
12.3600 24.1010 1.0000
12.3700 26.4769 1.0000
12.3800 13.6858 1.0000
12.3900 19.2288 1.0000
12.4000 19.9500 1.0000
12.4100 28.5075 1.0000
12.4200 20.1996 1.0000
12.4300 19.5649 1.0000
12.4400 16.1503 1.0000
12.4500 20.4522 1.0000
12.4600 27.3055 1.0000
12.4700 20.8246 1.0000
12.4800 11.9537 1.0000
12.4900 20.0498 1.0000
12.5000 20.9410 1.0000
12.5100 18.5356 1.0000
12.5200 23.8098 1.0000
12.5300 14.4875 1.0000
12.5400 16.2845 1.0000
12.5500 27.4744 1.0000
12.5600 17.5988 1.0000
12.5700 20.2707 1.0000
12.5800 13.0116 1.0000
12.5900 19.6548 1.0000
12.6000 19.6910 1.0000
12.6100 27.3161 1.0000
12.6200 19.6129 1.0000
12.6300 29.4680 1.0000
12.6400 20.9377 1.0000
12.6500 13.7807 1.0000
12.6600 20.6324 1.0000
12.6700 20.2643 1.0000
12.6800 23.5755 1.0000
12.6900 15.8361 1.0000
12.7000 20.5688 1.0000
12.7100 19.3944 1.0000
12.7200 24.6163 1.0000
12.7300 21.0164 1.0000
12.7400 16.9072 1.0000
12.7500 22.1881 1.0000
12.7600 21.7834 1.0000
12.7700 26.8509 1.0000
12.7800 20.4749 1.0000
12.7900 17.6650 1.0000
12.8000 25.8761 1.0000
12.8100 20.1553 1.0000
12.8200 15.0508 1.0000
12.8300 14.8914 1.0000
12.8400 17.0323 1.0000
12.8500 24.0603 1.0000
12.8600 20.0126 1.0000
12.8700 25.0814 1.0000
12.8800 22.2602 1.0000
12.8900 24.5157 1.0000
12.9000 17.8816 1.0000
12.9100 14.2649 1.0000
12.9200 20.2997 1.0000
12.9300 18.3885 1.0000
12.9400 19.4953 1.0000
12.9500 26.1121 1.0000
12.9600 13.7198 1.0000
12.9700 27.4178 1.0000
12.9800 21.4570 1.0000
12.9900 17.6938 1.0000
13.0000 23.5485 1.0000
13.0100 22.2963 1.0000
13.0200 30.7225 1.0000
13.0300 19.5599 1.0000
13.0400 15.3816 1.0000
13.0500 16.5011 1.0000
13.0600 17.7119 1.0000
13.0700 19.3248 1.0000
13.0800 21.4160 1.0000
13.0900 24.3485 1.0000
13.1000 18.6169 1.0000
13.1100 24.1233 1.0000
13.1200 13.9479 1.0000
13.1300 18.9801 1.0000
13.1400 31.6809 1.0000
13.1500 26.1741 1.0000
13.1600 16.9429 1.0000
13.1700 15.4134 1.0000
13.1800 13.2196 1.0000
13.1900 21.6380 1.0000
13.2000 24.3794 1.0000
13.2100 21.3739 1.0000
13.2200 19.4350 1.0000
13.2300 16.4061 1.0000
13.2400 29.5477 1.0000
13.2500 26.7686 1.0000
13.2600 16.4899 1.0000
13.2700 11.0259 1.0000
13.2800 13.9600 1.0000
13.2900 16.2420 1.0000
13.3000 23.0696 1.0000
13.3100 17.5528 1.0000
13.3200 24.8682 1.0000
13.3300 21.2863 1.0000
13.3400 18.8012 1.0000
13.3500 20.4124 1.0000
13.3600 15.8382 1.0000
13.3700 18.3010 1.0000
13.3800 19.3992 1.0000
13.3900 22.4459 1.0000
13.4000 24.6944 1.0000
13.4100 23.5618 1.0000
13.4200 32.8138 1.0000
13.4300 12.6665 1.0000
13.4400 16.6070 1.0000
13.4500 13.7278 1.0000
13.4600 24.5315 1.0000
13.4700 24.0567 1.0000
13.4800 18.4788 1.0000
13.4900 21.8413 1.0000
13.5000 18.8858 1.0000
13.5100 25.7671 1.0000
13.5200 19.2096 1.0000
13.5300 17.2877 1.0000
13.5400 16.8357 1.0000
13.5500 19.9065 1.0000
13.5600 14.2091 1.0000
13.5700 18.7116 1.0000
13.5800 18.9514 1.0000
13.5900 17.0141 1.0000
13.6000 20.2082 1.0000
13.6100 17.2020 1.0000
13.6200 22.1638 1.0000
13.6300 17.7211 1.0000
13.6400 17.2156 1.0000
13.6500 17.1063 1.0000
13.6600 21.5028 1.0000
13.6700 22.8909 1.0000
13.6800 20.3269 1.0000
13.6900 11.6541 1.0000
13.7000 20.4997 1.0000
13.7100 23.2558 1.0000
13.7200 23.0404 1.0000
13.7300 24.7942 1.0000
13.7400 12.9016 1.0000
13.7500 15.7121 1.0000
13.7600 23.4889 1.0000
13.7700 20.2649 1.0000
13.7800 18.4307 1.0000
13.7900 19.3215 1.0000
13.8000 17.7655 1.0000
13.8100 25.1429 1.0000
13.8200 15.1333 1.0000
13.8300 18.8576 1.0000
13.8400 19.5122 1.0000
13.8500 19.1790 1.0000
13.8600 16.8864 1.0000
13.8700 23.7158 1.0000
13.8800 16.6599 1.0000
13.8900 19.2765 1.0000
13.9000 21.1626 1.0000
13.9100 20.8463 1.0000
13.9200 14.8512 1.0000
13.9300 16.5377 1.0000
13.9400 23.8872 1.0000
13.9500 14.4606 1.0000
13.9600 19.2174 1.0000
13.9700 23.1070 1.0000
13.9800 21.9495 1.0000
13.9900 24.5223 1.0000
14.0000 19.4490 1.0000
14.0100 21.7486 1.0000
14.0200 27.9289 1.0000
14.0300 18.6342 1.0000
14.0400 23.3698 1.0000
14.0500 21.3853 1.0000
14.0600 25.1512 1.0000
14.0700 27.7859 1.0000
14.0800 26.7250 1.0000
14.0900 18.3562 1.0000
14.1000 27.5266 1.0000
14.1100 17.3015 1.0000
14.1200 21.1148 1.0000
14.1300 13.9509 1.0000
14.1400 18.8742 1.0000
14.1500 24.1449 1.0000
14.1600 25.6280 1.0000
14.1700 20.2304 1.0000
14.1800 21.0995 1.0000
14.1900 15.5025 1.0000
14.2000 20.9443 1.0000
14.2100 19.8206 1.0000
14.2200 19.4107 1.0000
14.2300 14.6375 1.0000
14.2400 14.5574 1.0000
14.2500 16.5408 1.0000
14.2600 27.4183 1.0000
14.2700 21.7541 1.0000
14.2800 13.8631 1.0000
14.2900 19.8647 1.0000
14.3000 18.4686 1.0000
14.3100 18.6541 1.0000
14.3200 24.5644 1.0000
14.3300 21.6569 1.0000
14.3400 28.7945 1.0000
14.3500 14.8219 1.0000
14.3600 17.2789 1.0000
14.3700 24.1888 1.0000
14.3800 17.0721 1.0000
14.3900 21.4590 1.0000
14.4000 21.2733 1.0000
14.4100 23.1783 1.0000
14.4200 20.3860 1.0000
14.4300 16.8757 1.0000
14.4400 28.2931 1.0000
14.4500 17.9379 1.0000
14.4600 30.7775 1.0000
14.4700 22.1123 1.0000
14.4800 29.5083 1.0000
14.4900 16.4979 1.0000
14.5000 19.6779 1.0000
14.5100 21.2511 1.0000
14.5200 23.6587 1.0000
14.5300 16.1054 1.0000
14.5400 23.7239 1.0000
14.5500 25.2580 1.0000
14.5600 24.4522 1.0000
14.5700 26.5358 1.0000
14.5800 28.6053 1.0000
14.5900 20.8075 1.0000
14.6000 22.2494 1.0000
14.6100 28.7950 1.0000
14.6200 22.7366 1.0000
14.6300 31.3681 1.0000
14.6400 25.8931 1.0000
14.6500 28.3382 1.0000
14.6600 26.3133 1.0000
14.6700 30.3587 1.0000
14.6800 37.2077 1.0000
14.6900 23.7865 1.0000
14.7000 22.0845 1.0000
14.7100 26.4061 1.0000
14.7200 29.3208 1.0000
14.7300 32.6880 1.0000
14.7400 36.5696 1.0000
14.7500 17.3868 1.0000
14.7600 29.7379 1.0000
14.7700 29.8903 1.0000
14.7800 24.0924 1.0000
14.7900 26.9776 1.0000
14.8000 20.1583 1.0000
14.8100 33.8669 1.0000
14.8200 36.1474 1.0000
14.8300 23.8256 1.0000
14.8400 20.2770 1.0000
14.8500 34.3930 1.0000
14.8600 21.3914 1.0000
14.8700 35.7828 1.0000
14.8800 18.1908 1.0000
14.8900 26.8948 1.0000
14.9000 19.1567 1.0000
14.9100 25.1021 1.0000
14.9200 20.2779 1.0000
14.9300 25.3564 1.0000
14.9400 25.9464 1.0000
14.9500 26.2337 1.0000
14.9600 19.9365 1.0000
14.9700 25.3425 1.0000
14.9800 23.3902 1.0000
14.9900 21.4802 1.0000
15.0000 25.2132 1.0000
15.0100 14.7240 1.0000
15.0200 24.0561 1.0000
15.0300 19.6506 1.0000
15.0400 17.8144 1.0000
15.0500 16.0328 1.0000
15.0600 25.1471 1.0000
15.0700 20.0416 1.0000
15.0800 21.9624 1.0000
15.0900 21.2309 1.0000
15.1000 18.9733 1.0000
15.1100 13.9853 1.0000
15.1200 21.3772 1.0000
15.1300 22.2055 1.0000
15.1400 20.0016 1.0000
15.1500 28.0184 1.0000
15.1600 20.3604 1.0000
15.1700 29.9523 1.0000
15.1800 13.3580 1.0000
15.1900 20.0139 1.0000
15.2000 19.3546 1.0000
15.2100 22.3410 1.0000
15.2200 23.0372 1.0000
15.2300 27.6480 1.0000
15.2400 13.5702 1.0000
15.2500 16.9886 1.0000
15.2600 17.0840 1.0000
15.2700 22.7355 1.0000
15.2800 19.0531 1.0000
15.2900 22.4264 1.0000
15.3000 21.8535 1.0000
15.3100 16.2499 1.0000
15.3200 28.3011 1.0000
15.3300 19.0702 1.0000
15.3400 14.3141 1.0000
15.3500 28.3674 1.0000
15.3600 31.1201 1.0000
15.3700 16.5094 1.0000
15.3800 30.6075 1.0000
15.3900 17.8626 1.0000
15.4000 18.8333 1.0000
15.4100 20.8981 1.0000
15.4200 15.5152 1.0000
15.4300 26.6566 1.0000
15.4400 24.6732 1.0000
15.4500 24.9204 1.0000
15.4600 18.8803 1.0000
15.4700 21.4783 1.0000
15.4800 19.7101 1.0000
15.4900 18.5380 1.0000
15.5000 16.9520 1.0000
15.5100 16.9931 1.0000
15.5200 24.4655 1.0000
15.5300 24.7296 1.0000
15.5400 18.2014 1.0000
15.5500 23.9276 1.0000
15.5600 26.5975 1.0000
15.5700 23.2934 1.0000
15.5800 29.9866 1.0000
15.5900 22.1172 1.0000
15.6000 27.6667 1.0000
15.6100 24.1914 1.0000
15.6200 17.7589 1.0000
15.6300 21.1110 1.0000
15.6400 19.7936 1.0000
15.6500 20.8158 1.0000
15.6600 23.2899 1.0000
15.6700 25.2481 1.0000
15.6800 16.9943 1.0000
15.6900 16.7716 1.0000
15.7000 21.5688 1.0000
15.7100 21.9646 1.0000
15.7200 27.2437 1.0000
15.7300 16.8467 1.0000
15.7400 20.5931 1.0000
15.7500 11.4557 1.0000
15.7600 19.4049 1.0000
15.7700 26.2159 1.0000
15.7800 15.7996 1.0000
15.7900 24.8746 1.0000
15.8000 15.6533 1.0000
15.8100 14.2974 1.0000
15.8200 18.9355 1.0000
15.8300 21.4459 1.0000
15.8400 20.2699 1.0000
15.8500 19.5539 1.0000
15.8600 18.0618 1.0000
15.8700 26.5538 1.0000
15.8800 31.9845 1.0000
15.8900 20.7865 1.0000
15.9000 16.3272 1.0000
15.9100 23.6182 1.0000
15.9200 14.8439 1.0000
15.9300 19.2560 1.0000
15.9400 19.4292 1.0000
15.9500 21.6771 1.0000
15.9600 18.0755 1.0000
15.9700 17.9574 1.0000
15.9800 22.3715 1.0000
15.9900 31.9227 1.0000
16.0000 20.6460 1.0000
16.0100 21.8232 1.0000
16.0200 29.1475 1.0000
16.0300 33.0709 1.0000
16.0400 24.9100 1.0000
16.0500 18.6127 1.0000
16.0600 18.6901 1.0000
16.0700 25.6245 1.0000
16.0800 15.2007 1.0000
16.0900 22.7857 1.0000
16.1000 24.0609 1.0000
16.1100 18.4337 1.0000
16.1200 25.3509 1.0000
16.1300 16.7319 1.0000
16.1400 26.2502 1.0000
16.1500 20.9402 1.0000
16.1600 21.2152 1.0000
16.1700 15.3528 1.0000
16.1800 28.6292 1.0000
16.1900 21.2360 1.0000
16.2000 26.7972 1.0000
16.2100 20.9936 1.0000
16.2200 15.3665 1.0000
16.2300 22.8221 1.0000
16.2400 21.6393 1.0000
16.2500 16.7332 1.0000
16.2600 22.5297 1.0000
16.2700 22.1578 1.0000
16.2800 25.3715 1.0000
16.2900 16.7749 1.0000
16.3000 16.7198 1.0000
16.3100 19.3554 1.0000
16.3200 22.4076 1.0000
16.3300 22.8929 1.0000
16.3400 18.1266 1.0000
16.3500 27.0058 1.0000
16.3600 24.5211 1.0000
16.3700 25.4339 1.0000
16.3800 19.2511 1.0000
16.3900 21.1435 1.0000
16.4000 15.3537 1.0000
16.4100 23.5260 1.0000
16.4200 18.1723 1.0000
16.4300 22.1838 1.0000
16.4400 20.9472 1.0000
16.4500 14.6877 1.0000
16.4600 27.6086 1.0000
16.4700 13.5645 1.0000
16.4800 16.9015 1.0000
16.4900 18.2789 1.0000
16.5000 20.7028 1.0000
16.5100 27.7334 1.0000
16.5200 21.6457 1.0000
16.5300 15.4180 1.0000
16.5400 25.5034 1.0000
16.5500 19.3508 1.0000
16.5600 15.5529 1.0000
16.5700 21.0172 1.0000
16.5800 27.5277 1.0000
16.5900 21.6797 1.0000
16.6000 21.7979 1.0000
16.6100 26.5980 1.0000
16.6200 23.3847 1.0000
16.6300 14.8283 1.0000
16.6400 21.2666 1.0000
16.6500 14.4622 1.0000
16.6600 21.0028 1.0000
16.6700 24.6310 1.0000
16.6800 18.7798 1.0000
16.6900 19.6170 1.0000
16.7000 18.8812 1.0000
16.7100 18.5355 1.0000
16.7200 20.2613 1.0000
16.7300 13.5119 1.0000
16.7400 27.3379 1.0000
16.7500 26.5043 1.0000
16.7600 41.6715 1.0000
16.7700 22.4832 1.0000
16.7800 23.7160 1.0000
16.7900 21.6101 1.0000
16.8000 22.3069 1.0000
16.8100 16.2057 1.0000
16.8200 20.4810 1.0000
16.8300 18.7357 1.0000
16.8400 17.5919 1.0000
16.8500 21.5162 1.0000
16.8600 19.9087 1.0000
16.8700 32.6912 1.0000
16.8800 21.1118 1.0000
16.8900 22.0300 1.0000
16.9000 23.4573 1.0000
16.9100 22.5502 1.0000
16.9200 35.6488 1.0000
16.9300 15.9711 1.0000
16.9400 25.0421 1.0000
16.9500 22.5893 1.0000
16.9600 19.6242 1.0000
16.9700 20.1890 1.0000
16.9800 18.0342 1.0000
16.9900 22.1057 1.0000
17.0000 17.7945 1.0000
17.0100 20.7068 1.0000
17.0200 24.8304 1.0000
17.0300 25.4502 1.0000
17.0400 17.7266 1.0000
17.0500 18.0165 1.0000
17.0600 20.6942 1.0000
17.0700 27.0439 1.0000
17.0800 22.1001 1.0000
17.0900 15.8056 1.0000
17.1000 30.0335 1.0000
17.1100 22.4380 1.0000
17.1200 22.4500 1.0000
17.1300 11.8898 1.0000
17.1400 28.0375 1.0000
17.1500 15.0576 1.0000
17.1600 13.1667 1.0000
17.1700 11.0137 1.0000
17.1800 25.9754 1.0000
17.1900 20.0648 1.0000
17.2000 18.1088 1.0000
17.2100 19.8689 1.0000
17.2200 20.2845 1.0000
17.2300 28.4193 1.0000
17.2400 26.3662 1.0000
17.2500 30.2182 1.0000
17.2600 17.2393 1.0000
17.2700 22.7626 1.0000
17.2800 21.1374 1.0000
17.2900 18.4453 1.0000
17.3000 18.3098 1.0000
17.3100 23.1386 1.0000
17.3200 22.1823 1.0000
17.3300 38.5623 1.0000
17.3400 23.8292 1.0000
17.3500 16.5797 1.0000
17.3600 25.3597 1.0000
17.3700 19.0333 1.0000
17.3800 19.3840 1.0000
17.3900 31.1980 1.0000
17.4000 18.9368 1.0000
17.4100 18.3527 1.0000
17.4200 22.8687 1.0000
17.4300 19.7564 1.0000
17.4400 17.8163 1.0000
17.4500 18.8116 1.0000
17.4600 21.8301 1.0000
17.4700 13.8776 1.0000
17.4800 21.3076 1.0000
17.4900 19.6337 1.0000
17.5000 16.2490 1.0000
17.5100 17.2335 1.0000
17.5200 23.2896 1.0000
17.5300 24.2109 1.0000
17.5400 22.1943 1.0000
17.5500 28.4556 1.0000
17.5600 21.5999 1.0000
17.5700 21.5734 1.0000
17.5800 18.0770 1.0000
17.5900 28.3337 1.0000
17.6000 19.9205 1.0000
17.6100 24.7564 1.0000
17.6200 18.8988 1.0000
17.6300 19.0056 1.0000
17.6400 16.8542 1.0000
17.6500 24.6969 1.0000
17.6600 27.2984 1.0000
17.6700 18.5323 1.0000
17.6800 20.1597 1.0000
17.6900 13.3064 1.0000
17.7000 16.0125 1.0000
17.7100 22.5954 1.0000
17.7200 28.7481 1.0000
17.7300 22.0029 1.0000
17.7400 29.8397 1.0000
17.7500 17.8896 1.0000
17.7600 23.7923 1.0000
17.7700 13.1714 1.0000
17.7800 32.5488 1.0000
17.7900 20.1738 1.0000
17.8000 18.8989 1.0000
17.8100 24.1904 1.0000
17.8200 13.2572 1.0000
17.8300 31.2048 1.0000
17.8400 22.9976 1.0000
17.8500 14.5493 1.0000
17.8600 24.6466 1.0000
17.8700 16.2427 1.0000
17.8800 23.9010 1.0000
17.8900 22.0507 1.0000
17.9000 23.3366 1.0000
17.9100 23.7148 1.0000
17.9200 16.4402 1.0000
17.9300 15.3380 1.0000
17.9400 24.8965 1.0000
17.9500 22.9292 1.0000
17.9600 26.9692 1.0000
17.9700 19.5053 1.0000
17.9800 17.4104 1.0000
17.9900 29.2957 1.0000
18.0000 24.8567 1.0000
18.0100 23.1841 1.0000
18.0200 22.8721 1.0000
18.0300 30.6435 1.0000
18.0400 19.0356 1.0000
18.0500 26.3129 1.0000
18.0600 17.7626 1.0000
18.0700 17.3888 1.0000
18.0800 21.2999 1.0000
18.0900 14.8596 1.0000
18.1000 26.4594 1.0000
18.1100 21.5917 1.0000
18.1200 24.2345 1.0000
18.1300 26.0689 1.0000
18.1400 18.3752 1.0000
18.1500 28.7233 1.0000
18.1600 25.7351 1.0000
18.1700 16.5379 1.0000
18.1800 21.6999 1.0000
18.1900 23.6140 1.0000
18.2000 25.6612 1.0000
18.2100 25.7671 1.0000
18.2200 27.3681 1.0000
18.2300 20.4560 1.0000
18.2400 19.4007 1.0000
18.2500 20.8884 1.0000
18.2600 23.2490 1.0000
18.2700 24.5726 1.0000
18.2800 17.1518 1.0000
18.2900 21.3147 1.0000
18.3000 28.9367 1.0000
18.3100 27.2836 1.0000
18.3200 29.0246 1.0000
18.3300 17.9304 1.0000
18.3400 13.5264 1.0000
18.3500 19.6064 1.0000
18.3600 24.1586 1.0000
18.3700 28.7853 1.0000
18.3800 22.1805 1.0000
18.3900 18.8805 1.0000
18.4000 12.0996 1.0000
18.4100 22.3482 1.0000
18.4200 22.8200 1.0000
18.4300 19.3603 1.0000
18.4400 23.1249 1.0000
18.4500 19.1984 1.0000
18.4600 28.8938 1.0000
18.4700 21.3182 1.0000
18.4800 19.0294 1.0000
18.4900 24.9250 1.0000
18.5000 20.2207 1.0000
18.5100 19.9769 1.0000
18.5200 26.1167 1.0000
18.5300 26.1686 1.0000
18.5400 27.1291 1.0000
18.5500 26.7214 1.0000
18.5600 29.6045 1.0000
18.5700 32.6119 1.0000
18.5800 26.7648 1.0000
18.5900 29.3573 1.0000
18.6000 24.3321 1.0000
18.6100 27.6398 1.0000
18.6200 21.2133 1.0000
18.6300 27.4116 1.0000
18.6400 15.6217 1.0000
18.6500 18.9193 1.0000
18.6600 20.2417 1.0000
18.6700 24.6979 1.0000
18.6800 20.8549 1.0000
18.6900 17.7744 1.0000
18.7000 27.4679 1.0000
18.7100 33.5167 1.0000
18.7200 24.8246 1.0000
18.7300 22.4800 1.0000
18.7400 26.8695 1.0000
18.7500 27.3427 1.0000
18.7600 21.7317 1.0000
18.7700 23.7005 1.0000
18.7800 28.1835 1.0000
18.7900 17.0990 1.0000
18.8000 19.6118 1.0000
18.8100 16.0160 1.0000
18.8200 19.3605 1.0000
18.8300 27.1176 1.0000
18.8400 28.4524 1.0000
18.8500 24.1001 1.0000
18.8600 29.6814 1.0000
18.8700 19.6378 1.0000
18.8800 18.0789 1.0000
18.8900 24.6213 1.0000
18.9000 22.5474 1.0000
18.9100 16.5939 1.0000
18.9200 18.8283 1.0000
18.9300 28.7585 1.0000
18.9400 18.0705 1.0000
18.9500 17.7180 1.0000
18.9600 21.3095 1.0000
18.9700 18.9703 1.0000
18.9800 22.7509 1.0000
18.9900 24.3329 1.0000
19.0000 24.1604 1.0000
19.0100 27.0877 1.0000
19.0200 24.5225 1.0000
19.0300 23.0714 1.0000
19.0400 15.9812 1.0000
19.0500 22.8297 1.0000
19.0600 20.5955 1.0000
19.0700 28.7990 1.0000
19.0800 31.7282 1.0000
19.0900 21.9050 1.0000
19.1000 23.0754 1.0000
19.1100 22.0218 1.0000
19.1200 20.6797 1.0000
19.1300 27.1665 1.0000
19.1400 22.8357 1.0000
19.1500 17.6612 1.0000
19.1600 19.7875 1.0000
19.1700 28.0858 1.0000
19.1800 22.8379 1.0000
19.1900 23.9205 1.0000
19.2000 25.5504 1.0000
19.2100 21.1864 1.0000
19.2200 21.5313 1.0000
19.2300 24.5363 1.0000
19.2400 30.8806 1.0000
19.2500 20.9106 1.0000
19.2600 26.6985 1.0000
19.2700 19.3082 1.0000
19.2800 23.6068 1.0000
19.2900 23.7801 1.0000
19.3000 20.7686 1.0000
19.3100 27.8238 1.0000
19.3200 21.6697 1.0000
19.3300 13.4558 1.0000
19.3400 20.5459 1.0000
19.3500 16.3314 1.0000
19.3600 28.8607 1.0000
19.3700 15.1039 1.0000
19.3800 34.9173 1.0000
19.3900 28.9572 1.0000
19.4000 22.1331 1.0000
19.4100 21.6498 1.0000
19.4200 22.8695 1.0000
19.4300 26.9690 1.0000
19.4400 23.0553 1.0000
19.4500 26.2216 1.0000
19.4600 32.2911 1.0000
19.4700 21.5299 1.0000
19.4800 31.1331 1.0000
19.4900 15.0820 1.0000
19.5000 23.3415 1.0000
19.5100 27.3239 1.0000
19.5200 19.7082 1.0000
19.5300 22.2816 1.0000
19.5400 22.1774 1.0000
19.5500 23.4507 1.0000
19.5600 26.4185 1.0000
19.5700 20.4421 1.0000
19.5800 21.7088 1.0000
19.5900 17.9503 1.0000
19.6000 24.9203 1.0000
19.6100 30.9927 1.0000
19.6200 19.0560 1.0000
19.6300 20.5061 1.0000
19.6400 24.8036 1.0000
19.6500 20.9108 1.0000
19.6600 30.3558 1.0000
19.6700 20.8483 1.0000
19.6800 32.2395 1.0000
19.6900 14.2047 1.0000
19.7000 17.0992 1.0000
19.7100 20.4414 1.0000
19.7200 27.0863 1.0000
19.7300 31.9172 1.0000
19.7400 16.8954 1.0000
19.7500 26.7000 1.0000
19.7600 28.8720 1.0000
19.7700 23.7231 1.0000
19.7800 27.2526 1.0000
19.7900 29.4457 1.0000
19.8000 25.0191 1.0000
19.8100 24.5677 1.0000
19.8200 23.3550 1.0000
19.8300 25.6604 1.0000
19.8400 20.7512 1.0000
19.8500 26.7689 1.0000
19.8600 29.1003 1.0000
19.8700 28.6691 1.0000
19.8800 22.2213 1.0000
19.8900 24.0562 1.0000
19.9000 18.2669 1.0000
19.9100 32.0312 1.0000
19.9200 27.4066 1.0000
19.9300 16.7166 1.0000
19.9400 24.9432 1.0000
19.9500 17.3691 1.0000
19.9600 20.5898 1.0000
19.9700 22.1329 1.0000
19.9800 21.8616 1.0000
19.9900 25.3512 1.0000
20.0000 35.9166 1.0000
20.0100 21.8930 1.0000
20.0200 16.5283 1.0000
20.0300 27.1056 1.0000
20.0400 29.3203 1.0000
20.0500 21.8690 1.0000
20.0600 26.5252 1.0000
20.0700 25.4652 1.0000
20.0800 29.9525 1.0000
20.0900 17.6338 1.0000
20.1000 24.2133 1.0000
20.1100 23.2022 1.0000
20.1200 17.1964 1.0000
20.1300 26.6484 1.0000
20.1400 29.1708 1.0000
20.1500 35.6273 1.0000
20.1600 28.8695 1.0000
20.1700 14.2882 1.0000
20.1800 27.5437 1.0000
20.1900 24.0214 1.0000
20.2000 25.7052 1.0000
20.2100 22.7208 1.0000
20.2200 22.5653 1.0000
20.2300 28.0682 1.0000
20.2400 23.9780 1.0000
20.2500 23.7775 1.0000
20.2600 30.1555 1.0000
20.2700 19.0765 1.0000
20.2800 37.7412 1.0000
20.2900 21.1525 1.0000
20.3000 22.5896 1.0000
20.3100 23.7802 1.0000
20.3200 23.3053 1.0000
20.3300 23.3717 1.0000
20.3400 28.0953 1.0000
20.3500 22.2168 1.0000
20.3600 37.8976 1.0000
20.3700 21.7714 1.0000
20.3800 35.7109 1.0000
20.3900 27.9490 1.0000
20.4000 34.6458 1.0000
20.4100 25.4049 1.0000
20.4200 28.1276 1.0000
20.4300 19.3480 1.0000
20.4400 26.7677 1.0000
20.4500 27.3378 1.0000
20.4600 21.0903 1.0000
20.4700 32.6767 1.0000
20.4800 26.8045 1.0000
20.4900 27.7971 1.0000
20.5000 26.9911 1.0000
20.5100 21.5505 1.0000
20.5200 23.2967 1.0000
20.5300 22.6448 1.0000
20.5400 18.8919 1.0000
20.5500 22.7530 1.0000
20.5600 32.0365 1.0000
20.5700 27.5137 1.0000
20.5800 27.9692 1.0000
20.5900 29.7331 1.0000
20.6000 15.9042 1.0000
20.6100 31.0502 1.0000
20.6200 20.5739 1.0000
20.6300 17.5650 1.0000
20.6400 29.2701 1.0000
20.6500 28.6725 1.0000
20.6600 28.1596 1.0000
20.6700 24.0155 1.0000
20.6800 27.5980 1.0000
20.6900 24.6000 1.0000
20.7000 25.1328 1.0000
20.7100 25.6663 1.0000
20.7200 25.0667 1.0000
20.7300 17.5970 1.0000
20.7400 26.2193 1.0000
20.7500 27.2535 1.0000
20.7600 19.2738 1.0000
20.7700 26.8115 1.0000
20.7800 18.1343 1.0000
20.7900 24.3450 1.0000
20.8000 27.4130 1.0000
20.8100 29.7134 1.0000
20.8200 31.5564 1.0000
20.8300 28.8360 1.0000
20.8400 24.5285 1.0000
20.8500 37.4221 1.0000
20.8600 32.5559 1.0000
20.8700 22.0087 1.0000
20.8800 38.9856 1.0000
20.8900 24.4044 1.0000
20.9000 25.3948 1.0000
20.9100 28.1047 1.0000
20.9200 26.3136 1.0000
20.9300 30.7920 1.0000
20.9400 20.8563 1.0000
20.9500 25.0798 1.0000
20.9600 22.9120 1.0000
20.9700 26.5684 1.0000
20.9800 26.6475 1.0000
20.9900 31.6873 1.0000
21.0000 35.1976 1.0000
21.0100 29.5550 1.0000
21.0200 20.9765 1.0000
21.0300 18.2755 1.0000
21.0400 29.8941 1.0000
21.0500 35.7794 1.0000
21.0600 22.4421 1.0000
21.0700 26.8751 1.0000
21.0800 26.6954 1.0000
21.0900 31.2112 1.0000
21.1000 26.7658 1.0000
21.1100 26.6766 1.0000
21.1200 21.7656 1.0000
21.1300 22.2845 1.0000
21.1400 27.5724 1.0000
21.1500 34.5672 1.0000
21.1600 19.8090 1.0000
21.1700 21.2633 1.0000
21.1800 33.9846 1.0000
21.1900 28.9750 1.0000
21.2000 26.3129 1.0000
21.2100 26.2955 1.0000
21.2200 32.6199 1.0000
21.2300 28.6559 1.0000
21.2400 24.6403 1.0000
21.2500 20.6974 1.0000
21.2600 31.5030 1.0000
21.2700 23.6481 1.0000
21.2800 28.4638 1.0000
21.2900 27.7026 1.0000
21.3000 18.5512 1.0000
21.3100 28.4481 1.0000
21.3200 27.7108 1.0000
21.3300 25.2126 1.0000
21.3400 28.4362 1.0000
21.3500 33.4638 1.0000
21.3600 27.6240 1.0000
21.3700 27.7733 1.0000
21.3800 23.6173 1.0000
21.3900 29.3050 1.0000
21.4000 29.6112 1.0000
21.4100 23.5775 1.0000
21.4200 21.5172 1.0000
21.4300 20.8719 1.0000
21.4400 29.3223 1.0000
21.4500 27.7445 1.0000
21.4600 29.7588 1.0000
21.4700 23.8034 1.0000
21.4800 21.4710 1.0000
21.4900 23.7721 1.0000
21.5000 18.3009 1.0000
21.5100 23.9796 1.0000
21.5200 30.6189 1.0000
21.5300 19.9998 1.0000
21.5400 21.8841 1.0000
21.5500 29.3464 1.0000
21.5600 25.1998 1.0000
21.5700 27.2523 1.0000
21.5800 26.9125 1.0000
21.5900 26.8789 1.0000
21.6000 28.7539 1.0000
21.6100 28.2741 1.0000
21.6200 28.2600 1.0000
21.6300 25.9948 1.0000
21.6400 24.6054 1.0000
21.6500 20.6995 1.0000
21.6600 21.5532 1.0000
21.6700 26.0994 1.0000
21.6800 21.8757 1.0000
21.6900 24.1877 1.0000
21.7000 27.7784 1.0000
21.7100 29.7515 1.0000
21.7200 20.5264 1.0000
21.7300 31.5083 1.0000
21.7400 28.1661 1.0000
21.7500 32.3628 1.0000
21.7600 22.9468 1.0000
21.7700 23.3040 1.0000
21.7800 26.4548 1.0000
21.7900 27.7721 1.0000
21.8000 20.5885 1.0000
21.8100 22.8058 1.0000
21.8200 26.9622 1.0000
21.8300 23.1714 1.0000
21.8400 35.3597 1.0000
21.8500 35.0091 1.0000
21.8600 21.9997 1.0000
21.8700 24.2560 1.0000
21.8800 34.0579 1.0000
21.8900 28.6832 1.0000
21.9000 27.5126 1.0000
21.9100 29.9778 1.0000
21.9200 31.7837 1.0000
21.9300 35.8325 1.0000
21.9400 28.0315 1.0000
21.9500 22.1218 1.0000
21.9600 22.8401 1.0000
21.9700 24.6990 1.0000
21.9800 29.1451 1.0000
21.9900 26.9980 1.0000
22.0000 25.0938 1.0000
22.0100 41.9983 1.0000
22.0200 29.8427 1.0000
22.0300 23.4250 1.0000
22.0400 18.3152 1.0000
22.0500 24.5036 1.0000
22.0600 23.9396 1.0000
22.0700 23.8400 1.0000
22.0800 29.3543 1.0000
22.0900 31.0457 1.0000
22.1000 28.9706 1.0000
22.1100 38.2968 1.0000
22.1200 30.8407 1.0000
22.1300 33.9174 1.0000
22.1400 42.7761 1.0000
22.1500 44.3643 1.0000
22.1600 40.6578 1.0000
22.1700 39.6587 1.0000
22.1800 33.7057 1.0000
22.1900 29.3267 1.0000
22.2000 35.7863 1.0000
22.2100 36.7558 1.0000
22.2200 24.3869 1.0000
22.2300 48.9466 1.0000
22.2400 52.8366 1.0000
22.2500 52.4310 1.0000
22.2600 49.7711 1.0000
22.2700 55.4425 1.0000
22.2800 59.6053 1.0000
22.2900 84.1997 1.0000
22.3000 63.9356 1.0000
22.3100 63.6903 1.0000
22.3200 73.9331 1.0000
22.3300 60.1973 1.0000
22.3400 71.8235 1.0000
22.3500 77.9035 1.0000
22.3600 86.0686 1.0000
22.3700 92.1187 1.0000
22.3800 84.6814 1.0000
22.3900 93.3281 1.0000
22.4000 73.6454 1.0000
22.4100 75.1913 1.0000
22.4200 80.4085 1.0000
22.4300 67.6603 1.0000
22.4400 81.0219 1.0000
22.4500 90.8139 1.0000
22.4600 66.5112 1.0000
22.4700 77.2385 1.0000
22.4800 79.9732 1.0000
22.4900 81.2476 1.0000
22.5000 69.1138 1.0000
22.5100 61.6697 1.0000
22.5200 48.6358 1.0000
22.5300 74.1520 1.0000
22.5400 62.9061 1.0000
22.5500 64.4880 1.0000
22.5600 51.5198 1.0000
22.5700 52.7004 1.0000
22.5800 51.5183 1.0000
22.5900 42.3084 1.0000
22.6000 50.4700 1.0000
22.6100 35.3110 1.0000
22.6200 38.3663 1.0000
22.6300 30.6333 1.0000
22.6400 33.9096 1.0000
22.6500 44.8087 1.0000
22.6600 42.1754 1.0000
22.6700 35.4829 1.0000
22.6800 27.2736 1.0000
22.6900 28.1724 1.0000
22.7000 37.4618 1.0000
22.7100 24.2663 1.0000
22.7200 31.0492 1.0000
22.7300 32.6447 1.0000
22.7400 28.8374 1.0000
22.7500 25.1142 1.0000
22.7600 32.6980 1.0000
22.7700 34.6221 1.0000
22.7800 42.2724 1.0000
22.7900 33.6573 1.0000
22.8000 36.7881 1.0000
22.8100 28.2645 1.0000
22.8200 32.7906 1.0000
22.8300 23.1965 1.0000
22.8400 30.6192 1.0000
22.8500 25.0164 1.0000
22.8600 31.7608 1.0000
22.8700 28.1717 1.0000
22.8800 29.7919 1.0000
22.8900 32.9529 1.0000
22.9000 33.7405 1.0000
22.9100 32.1282 1.0000
22.9200 33.2882 1.0000
22.9300 23.9659 1.0000
22.9400 29.0310 1.0000
22.9500 31.2324 1.0000
22.9600 29.2902 1.0000
22.9700 26.4563 1.0000
22.9800 29.8652 1.0000
22.9900 35.2596 1.0000
23.0000 28.6113 1.0000
23.0100 30.3703 1.0000
23.0200 31.4806 1.0000
23.0300 29.0351 1.0000
23.0400 22.3676 1.0000
23.0500 45.9537 1.0000
23.0600 24.4124 1.0000
23.0700 31.8820 1.0000
23.0800 31.2708 1.0000
23.0900 38.0224 1.0000
23.1000 31.8216 1.0000
23.1100 27.2935 1.0000
23.1200 35.2175 1.0000
23.1300 22.7508 1.0000
23.1400 34.9996 1.0000
23.1500 36.9213 1.0000
23.1600 29.3282 1.0000
23.1700 27.1160 1.0000
23.1800 16.0494 1.0000
23.1900 29.2143 1.0000
23.2000 26.5910 1.0000
23.2100 26.3657 1.0000
23.2200 32.7754 1.0000
23.2300 19.0309 1.0000
23.2400 22.6836 1.0000
23.2500 27.6751 1.0000
23.2600 21.4379 1.0000
23.2700 23.0285 1.0000
23.2800 35.6929 1.0000
23.2900 26.6497 1.0000
23.3000 36.6158 1.0000
23.3100 28.2057 1.0000
23.3200 32.2056 1.0000
23.3300 25.6495 1.0000
23.3400 27.6808 1.0000
23.3500 23.6746 1.0000
23.3600 28.7201 1.0000
23.3700 30.7173 1.0000
23.3800 27.9452 1.0000
23.3900 29.1007 1.0000
23.4000 27.0454 1.0000
23.4100 34.3666 1.0000
23.4200 26.6133 1.0000
23.4300 26.4885 1.0000
23.4400 26.5849 1.0000
23.4500 31.7536 1.0000
23.4600 32.6686 1.0000
23.4700 27.4701 1.0000
23.4800 36.5990 1.0000
23.4900 36.1866 1.0000
23.5000 27.2552 1.0000
23.5100 27.2908 1.0000
23.5200 29.7541 1.0000
23.5300 23.6571 1.0000
23.5400 36.0664 1.0000
23.5500 28.5846 1.0000
23.5600 46.1146 1.0000
23.5700 31.0907 1.0000
23.5800 30.7070 1.0000
23.5900 34.7121 1.0000
23.6000 27.3094 1.0000
23.6100 41.7170 1.0000
23.6200 44.4715 1.0000
23.6300 33.6661 1.0000
23.6400 41.5715 1.0000
23.6500 39.8533 1.0000
23.6600 26.6234 1.0000
23.6700 33.8066 1.0000
23.6800 40.4997 1.0000
23.6900 49.9248 1.0000
23.7000 42.8650 1.0000
23.7100 38.2811 1.0000
23.7200 42.9188 1.0000
23.7300 26.8248 1.0000
23.7400 33.7353 1.0000
23.7500 33.7893 1.0000
23.7600 28.1298 1.0000
23.7700 28.5057 1.0000
23.7800 27.3481 1.0000
23.7900 29.1238 1.0000
23.8000 36.3476 1.0000
23.8100 21.0831 1.0000
23.8200 27.0826 1.0000
23.8300 44.1501 1.0000
23.8400 29.4936 1.0000
23.8500 42.0266 1.0000
23.8600 36.9600 1.0000
23.8700 29.6771 1.0000
23.8800 33.3478 1.0000
23.8900 35.1370 1.0000
23.9000 32.7922 1.0000
23.9100 27.8617 1.0000
23.9200 33.8190 1.0000
23.9300 29.4433 1.0000
23.9400 27.2260 1.0000
23.9500 29.8323 1.0000
23.9600 33.1224 1.0000
23.9700 36.9805 1.0000
23.9800 34.4488 1.0000
23.9900 26.2273 1.0000
24.0000 31.7694 1.0000
24.0100 35.0783 1.0000
24.0200 37.2968 1.0000
24.0300 30.4082 1.0000
24.0400 28.6464 1.0000
24.0500 37.9433 1.0000
24.0600 31.5848 1.0000
24.0700 32.1619 1.0000
24.0800 38.0517 1.0000
24.0900 29.1882 1.0000
24.1000 42.4587 1.0000
24.1100 42.9240 1.0000
24.1200 33.6595 1.0000
24.1300 27.7769 1.0000
24.1400 32.1926 1.0000
24.1500 25.8690 1.0000
24.1600 33.5817 1.0000
24.1700 28.1780 1.0000
24.1800 32.9070 1.0000
24.1900 26.2427 1.0000
24.2000 22.0820 1.0000
24.2100 35.5408 1.0000
24.2200 31.1701 1.0000
24.2300 32.4010 1.0000
24.2400 30.4776 1.0000
24.2500 20.8186 1.0000
24.2600 33.5752 1.0000
24.2700 38.2177 1.0000
24.2800 30.1382 1.0000
24.2900 30.6468 1.0000
24.3000 25.8318 1.0000
24.3100 26.9743 1.0000
24.3200 29.4210 1.0000
24.3300 33.3741 1.0000
24.3400 43.4100 1.0000
24.3500 32.1848 1.0000
24.3600 36.1691 1.0000
24.3700 30.9160 1.0000
24.3800 22.2147 1.0000
24.3900 21.0951 1.0000
24.4000 28.6806 1.0000
24.4100 26.5361 1.0000
24.4200 23.5784 1.0000
24.4300 34.2111 1.0000
24.4400 21.1504 1.0000
24.4500 37.9444 1.0000
24.4600 27.3928 1.0000
24.4700 29.7129 1.0000
24.4800 34.6443 1.0000
24.4900 26.3320 1.0000
24.5000 23.7963 1.0000
24.5100 35.9667 1.0000
24.5200 26.8062 1.0000
24.5300 32.6324 1.0000
24.5400 36.2500 1.0000
24.5500 36.2236 1.0000
24.5600 33.8653 1.0000
24.5700 41.6774 1.0000
24.5800 35.8049 1.0000
24.5900 33.3809 1.0000
24.6000 19.9695 1.0000
24.6100 29.3908 1.0000
24.6200 33.8605 1.0000
24.6300 33.3839 1.0000
24.6400 24.5885 1.0000
24.6500 45.2364 1.0000
24.6600 36.1104 1.0000
24.6700 26.4299 1.0000
24.6800 28.5168 1.0000
24.6900 30.7572 1.0000
24.7000 19.8118 1.0000
24.7100 44.4485 1.0000
24.7200 26.4992 1.0000
24.7300 42.5769 1.0000
24.7400 27.6645 1.0000
24.7500 37.5205 1.0000
24.7600 38.3531 1.0000
24.7700 33.8141 1.0000
24.7800 36.8962 1.0000
24.7900 21.6770 1.0000
24.8000 28.9040 1.0000
24.8100 28.4747 1.0000
24.8200 39.2029 1.0000
24.8300 38.2968 1.0000
24.8400 37.9457 1.0000
24.8500 36.3190 1.0000
24.8600 34.8256 1.0000
24.8700 38.6936 1.0000
24.8800 27.6858 1.0000
24.8900 43.9254 1.0000
24.9000 43.0492 1.0000
24.9100 26.8776 1.0000
24.9200 40.3458 1.0000
24.9300 39.3494 1.0000
24.9400 36.0670 1.0000
24.9500 37.8713 1.0000
24.9600 39.0845 1.0000
24.9700 42.1356 1.0000
24.9800 31.9905 1.0000
24.9900 34.0138 1.0000
25.0000 26.2172 1.0000
25.0100 44.4353 1.0000
25.0200 33.5982 1.0000
25.0300 37.7454 1.0000
25.0400 38.2469 1.0000
25.0500 30.0406 1.0000
25.0600 39.0075 1.0000
25.0700 39.6774 1.0000
25.0800 38.9615 1.0000
25.0900 29.2199 1.0000
25.1000 36.5973 1.0000
25.1100 31.0348 1.0000
25.1200 16.6912 1.0000
25.1300 29.7292 1.0000
25.1400 28.8005 1.0000
25.1500 18.5040 1.0000
25.1600 32.8168 1.0000
25.1700 37.0610 1.0000
25.1800 33.7156 1.0000
25.1900 34.6699 1.0000
25.2000 33.7058 1.0000
25.2100 39.7752 1.0000
25.2200 44.9703 1.0000
25.2300 32.2564 1.0000
25.2400 32.4959 1.0000
25.2500 35.0503 1.0000
25.2600 21.6228 1.0000
25.2700 32.1124 1.0000
25.2800 29.6979 1.0000
25.2900 22.2633 1.0000
25.3000 36.1166 1.0000
25.3100 41.9645 1.0000
25.3200 32.6579 1.0000
25.3300 32.1294 1.0000
25.3400 40.5360 1.0000
25.3500 33.3601 1.0000
25.3600 45.8694 1.0000
25.3700 32.5006 1.0000
25.3800 28.4956 1.0000
25.3900 31.0928 1.0000
25.4000 28.6141 1.0000
25.4100 33.4331 1.0000
25.4200 39.7935 1.0000
25.4300 29.9324 1.0000
25.4400 39.1283 1.0000
25.4500 32.7237 1.0000
25.4600 34.8621 1.0000
25.4700 33.9457 1.0000
25.4800 36.5711 1.0000
25.4900 31.1500 1.0000
25.5000 27.0924 1.0000
25.5100 35.5075 1.0000
25.5200 49.8865 1.0000
25.5300 35.3374 1.0000
25.5400 33.6631 1.0000
25.5500 31.1529 1.0000
25.5600 39.3655 1.0000
25.5700 36.4030 1.0000
25.5800 31.0060 1.0000
25.5900 30.3078 1.0000
25.6000 36.4113 1.0000
25.6100 34.7156 1.0000
25.6200 43.4395 1.0000
25.6300 32.2472 1.0000
25.6400 33.8413 1.0000
25.6500 51.6487 1.0000
25.6600 37.2131 1.0000
25.6700 37.9446 1.0000
25.6800 50.2779 1.0000
25.6900 35.0261 1.0000
25.7000 32.4861 1.0000
25.7100 35.4351 1.0000
25.7200 34.0726 1.0000
25.7300 42.4735 1.0000
25.7400 43.0486 1.0000
25.7500 37.4672 1.0000
25.7600 33.4456 1.0000
25.7700 39.1813 1.0000
25.7800 32.1471 1.0000
25.7900 37.2044 1.0000
25.8000 34.8629 1.0000
25.8100 32.9151 1.0000
25.8200 37.5691 1.0000
25.8300 27.3759 1.0000
25.8400 30.6375 1.0000
25.8500 33.1223 1.0000
25.8600 28.5988 1.0000
25.8700 32.6185 1.0000
25.8800 26.5657 1.0000
25.8900 37.7241 1.0000
25.9000 32.6867 1.0000
25.9100 41.5119 1.0000
25.9200 25.8701 1.0000
25.9300 30.2068 1.0000
25.9400 34.6028 1.0000
25.9500 30.4886 1.0000
25.9600 48.6746 1.0000
25.9700 32.4821 1.0000
25.9800 41.9774 1.0000
25.9900 34.7207 1.0000
26.0000 36.2896 1.0000
26.0100 39.4641 1.0000
26.0200 28.0928 1.0000
26.0300 38.9758 1.0000
26.0400 34.0327 1.0000
26.0500 31.9218 1.0000
26.0600 33.4764 1.0000
26.0700 27.7553 1.0000
26.0800 47.1852 1.0000
26.0900 34.9365 1.0000
26.1000 33.7033 1.0000
26.1100 36.8940 1.0000
26.1200 38.4714 1.0000
26.1300 42.1491 1.0000
26.1400 41.0661 1.0000
26.1500 26.0671 1.0000
26.1600 32.9060 1.0000
26.1700 40.4615 1.0000
26.1800 34.3844 1.0000
26.1900 37.3048 1.0000
26.2000 30.8832 1.0000
26.2100 41.3949 1.0000
26.2200 33.0638 1.0000
26.2300 32.1642 1.0000
26.2400 29.0013 1.0000
26.2500 33.8539 1.0000
26.2600 34.8859 1.0000
26.2700 31.5203 1.0000
26.2800 47.8051 1.0000
26.2900 38.1113 1.0000
26.3000 37.0988 1.0000
26.3100 32.2272 1.0000
26.3200 31.4001 1.0000
26.3300 39.1220 1.0000
26.3400 27.9579 1.0000
26.3500 39.4983 1.0000
26.3600 42.0951 1.0000
26.3700 28.7376 1.0000
26.3800 38.3040 1.0000
26.3900 36.2255 1.0000
26.4000 24.6312 1.0000
26.4100 38.4252 1.0000
26.4200 37.5179 1.0000
26.4300 37.8739 1.0000
26.4400 43.3299 1.0000
26.4500 42.9295 1.0000
26.4600 31.6091 1.0000
26.4700 48.4517 1.0000
26.4800 32.3236 1.0000
26.4900 30.1099 1.0000
26.5000 38.7486 1.0000
26.5100 32.0595 1.0000
26.5200 35.5202 1.0000
26.5300 30.0192 1.0000
26.5400 37.0153 1.0000
26.5500 37.2429 1.0000
26.5600 39.7978 1.0000
26.5700 30.3476 1.0000
26.5800 34.5177 1.0000
26.5900 31.4705 1.0000
26.6000 29.7462 1.0000
26.6100 23.2301 1.0000
26.6200 34.9192 1.0000
26.6300 28.7823 1.0000
26.6400 43.9804 1.0000
26.6500 35.5332 1.0000
26.6600 30.8447 1.0000
26.6700 37.3903 1.0000
26.6800 33.9834 1.0000
26.6900 38.9032 1.0000
26.7000 47.6957 1.0000
26.7100 26.2354 1.0000
26.7200 35.3790 1.0000
26.7300 29.7677 1.0000
26.7400 43.6347 1.0000
26.7500 39.8827 1.0000
26.7600 43.4073 1.0000
26.7700 24.5306 1.0000
26.7800 34.7678 1.0000
26.7900 42.6751 1.0000
26.8000 35.6398 1.0000
26.8100 30.2935 1.0000
26.8200 42.8018 1.0000
26.8300 43.4471 1.0000
26.8400 33.1581 1.0000
26.8500 47.5448 1.0000
26.8600 44.6031 1.0000
26.8700 41.5013 1.0000
26.8800 44.6734 1.0000
26.8900 29.2917 1.0000
26.9000 31.1756 1.0000
26.9100 33.2075 1.0000
26.9200 39.3240 1.0000
26.9300 32.0014 1.0000
26.9400 39.5798 1.0000
26.9500 36.1242 1.0000
26.9600 23.5556 1.0000
26.9700 32.7746 1.0000
26.9800 39.6902 1.0000
26.9900 43.9341 1.0000
27.0000 44.5848 1.0000
27.0100 44.8407 1.0000
27.0200 42.1905 1.0000
27.0300 32.8702 1.0000
27.0400 28.0341 1.0000
27.0500 36.8498 1.0000
27.0600 33.3543 1.0000
27.0700 34.7724 1.0000
27.0800 39.5159 1.0000
27.0900 30.1305 1.0000
27.1000 41.5274 1.0000
27.1100 46.3047 1.0000
27.1200 38.4400 1.0000
27.1300 44.6462 1.0000
27.1400 35.7916 1.0000
27.1500 36.0647 1.0000
27.1600 32.2000 1.0000
27.1700 41.0019 1.0000
27.1800 53.6572 1.0000
27.1900 39.6864 1.0000
27.2000 28.5858 1.0000
27.2100 37.7003 1.0000
27.2200 44.9205 1.0000
27.2300 42.9209 1.0000
27.2400 36.7787 1.0000
27.2500 36.8287 1.0000
27.2600 39.7858 1.0000
27.2700 29.9413 1.0000
27.2800 43.3042 1.0000
27.2900 42.2399 1.0000
27.3000 40.4455 1.0000
27.3100 32.2596 1.0000
27.3200 43.1915 1.0000
27.3300 33.1173 1.0000
27.3400 30.4906 1.0000
27.3500 38.6077 1.0000
27.3600 42.2916 1.0000
27.3700 39.3709 1.0000
27.3800 37.3699 1.0000
27.3900 55.2557 1.0000
27.4000 43.3988 1.0000
27.4100 38.3100 1.0000
27.4200 36.8932 1.0000
27.4300 39.7402 1.0000
27.4400 43.3236 1.0000
27.4500 35.4383 1.0000
27.4600 43.4612 1.0000
27.4700 44.0854 1.0000
27.4800 39.6104 1.0000
27.4900 33.8081 1.0000
27.5000 32.5566 1.0000
27.5100 38.1277 1.0000
27.5200 52.8521 1.0000
27.5300 36.0709 1.0000
27.5400 46.5899 1.0000
27.5500 54.0295 1.0000
27.5600 34.8092 1.0000
27.5700 39.7960 1.0000
27.5800 34.6859 1.0000
27.5900 35.2681 1.0000
27.6000 35.9655 1.0000
27.6100 35.5260 1.0000
27.6200 39.2209 1.0000
27.6300 36.3811 1.0000
27.6400 34.2614 1.0000
27.6500 35.1944 1.0000
27.6600 45.8476 1.0000
27.6700 36.3998 1.0000
27.6800 43.4158 1.0000
27.6900 26.2290 1.0000
27.7000 44.8199 1.0000
27.7100 35.5681 1.0000
27.7200 44.9715 1.0000
27.7300 41.1098 1.0000
27.7400 36.7565 1.0000
27.7500 36.1778 1.0000
27.7600 48.1264 1.0000
27.7700 36.1427 1.0000
27.7800 41.2546 1.0000
27.7900 49.2395 1.0000
27.8000 43.7023 1.0000
27.8100 40.6185 1.0000
27.8200 42.4351 1.0000
27.8300 40.6099 1.0000
27.8400 47.2748 1.0000
27.8500 46.9807 1.0000
27.8600 52.3891 1.0000
27.8700 46.1124 1.0000
27.8800 39.1431 1.0000
27.8900 48.1237 1.0000
27.9000 46.6313 1.0000
27.9100 55.3306 1.0000
27.9200 52.8374 1.0000
27.9300 59.9458 1.0000
27.9400 45.2442 1.0000
27.9500 57.6419 1.0000
27.9600 63.7321 1.0000
27.9700 59.7909 1.0000
27.9800 62.1884 1.0000
27.9900 60.8347 1.0000
28.0000 63.3889 1.0000
28.0100 55.2951 1.0000
28.0200 57.6548 1.0000
28.0300 73.2137 1.0000
28.0400 52.5412 1.0000
28.0500 55.8148 1.0000
28.0600 64.5462 1.0000
28.0700 55.3747 1.0000
28.0800 49.6426 1.0000
28.0900 49.0195 1.0000
28.1000 62.3305 1.0000
28.1100 43.8754 1.0000
28.1200 63.2341 1.0000
28.1300 59.9912 1.0000
28.1400 69.6245 1.0000
28.1500 60.6512 1.0000
28.1600 48.6835 1.0000
28.1700 67.4360 1.0000
28.1800 55.0039 1.0000
28.1900 65.6586 1.0000
28.2000 59.0864 1.0000
28.2100 44.7899 1.0000
28.2200 55.9867 1.0000
28.2300 55.0831 1.0000
28.2400 46.6218 1.0000
28.2500 45.4592 1.0000
28.2600 53.9346 1.0000
28.2700 48.0978 1.0000
28.2800 40.2731 1.0000
28.2900 42.7697 1.0000
28.3000 46.0438 1.0000
28.3100 43.8663 1.0000
28.3200 46.4257 1.0000
28.3300 49.6797 1.0000
28.3400 45.1227 1.0000
28.3500 36.7143 1.0000
28.3600 39.9738 1.0000
28.3700 35.8844 1.0000
28.3800 43.0078 1.0000
28.3900 44.1181 1.0000
28.4000 45.6784 1.0000
28.4100 40.7379 1.0000
28.4200 48.3880 1.0000
28.4300 29.1691 1.0000
28.4400 47.5632 1.0000
28.4500 34.9075 1.0000
28.4600 42.6723 1.0000
28.4700 44.0091 1.0000
28.4800 37.9442 1.0000
28.4900 60.0157 1.0000
28.5000 36.7348 1.0000
28.5100 42.3744 1.0000
28.5200 42.2529 1.0000
28.5300 44.0219 1.0000
28.5400 58.0602 1.0000
28.5500 45.3902 1.0000
28.5600 46.7065 1.0000
28.5700 42.5283 1.0000
28.5800 53.2013 1.0000
28.5900 45.0487 1.0000
28.6000 38.6523 1.0000
28.6100 42.7254 1.0000
28.6200 33.4463 1.0000
28.6300 42.5242 1.0000
28.6400 42.3393 1.0000
28.6500 41.8590 1.0000
28.6600 52.7480 1.0000
28.6700 41.0683 1.0000
28.6800 49.7860 1.0000
28.6900 39.9247 1.0000
28.7000 47.8764 1.0000
28.7100 56.9678 1.0000
28.7200 55.4363 1.0000
28.7300 62.6865 1.0000
28.7400 54.3057 1.0000
28.7500 45.7216 1.0000
28.7600 52.2096 1.0000
28.7700 39.6566 1.0000
28.7800 58.5169 1.0000
28.7900 42.6038 1.0000
28.8000 72.0404 1.0000
28.8100 51.4784 1.0000
28.8200 65.1612 1.0000
28.8300 74.8810 1.0000
28.8400 50.5089 1.0000
28.8500 66.0729 1.0000
28.8600 64.0056 1.0000
28.8700 46.6204 1.0000
28.8800 64.3985 1.0000
28.8900 61.5045 1.0000
28.9000 48.3836 1.0000
28.9100 58.1606 1.0000
28.9200 63.2106 1.0000
28.9300 55.3364 1.0000
28.9400 52.3809 1.0000
28.9500 53.0632 1.0000
28.9600 48.6497 1.0000
28.9700 49.3881 1.0000
28.9800 62.9802 1.0000
28.9900 51.4662 1.0000
29.0000 56.5646 1.0000
29.0100 47.7583 1.0000
29.0200 52.1622 1.0000
29.0300 66.4943 1.0000
29.0400 62.2243 1.0000
29.0500 53.0242 1.0000
29.0600 50.4120 1.0000
29.0700 51.4811 1.0000
29.0800 33.3840 1.0000
29.0900 51.4075 1.0000
29.1000 46.6609 1.0000
29.1100 53.4577 1.0000
29.1200 56.1812 1.0000
29.1300 39.3869 1.0000
29.1400 50.9202 1.0000
29.1500 49.5819 1.0000
29.1600 41.6285 1.0000
29.1700 55.5367 1.0000
29.1800 52.5380 1.0000
29.1900 50.2541 1.0000
29.2000 53.6390 1.0000
29.2100 37.0669 1.0000
29.2200 49.3830 1.0000
29.2300 42.4783 1.0000
29.2400 45.5310 1.0000
29.2500 43.6194 1.0000
29.2600 31.2946 1.0000
29.2700 49.4685 1.0000
29.2800 30.1337 1.0000
29.2900 43.1318 1.0000
29.3000 43.1065 1.0000
29.3100 36.5445 1.0000
29.3200 35.1090 1.0000
29.3300 54.9775 1.0000
29.3400 45.9622 1.0000
29.3500 34.7904 1.0000
29.3600 46.4592 1.0000
29.3700 42.8773 1.0000
29.3800 27.8002 1.0000
29.3900 52.5575 1.0000
29.4000 36.8859 1.0000
29.4100 40.7186 1.0000
29.4200 27.7019 1.0000
29.4300 22.5469 1.0000
29.4400 52.9762 1.0000
29.4500 55.6091 1.0000
29.4600 27.7561 1.0000
29.4700 35.6916 1.0000
29.4800 44.7316 1.0000
29.4900 34.9643 1.0000
29.5000 40.4282 1.0000
29.5100 36.0910 1.0000
29.5200 34.7880 1.0000
29.5300 34.3242 1.0000
29.5400 36.6950 1.0000
29.5500 37.7923 1.0000
29.5600 55.3756 1.0000
29.5700 30.4203 1.0000
29.5800 38.0990 1.0000
29.5900 43.7981 1.0000
29.6000 44.7017 1.0000
29.6100 44.4937 1.0000
29.6200 47.4496 1.0000
29.6300 35.7907 1.0000
29.6400 43.2188 1.0000
29.6500 44.7135 1.0000
29.6600 52.6504 1.0000
29.6700 35.9410 1.0000
29.6800 33.7111 1.0000
29.6900 44.7794 1.0000
29.7000 41.4335 1.0000
29.7100 49.0875 1.0000
29.7200 53.8525 1.0000
29.7300 55.0883 1.0000
29.7400 37.4424 1.0000
29.7500 45.9537 1.0000
29.7600 48.7649 1.0000
29.7700 50.5481 1.0000
29.7800 39.0789 1.0000
29.7900 56.0113 1.0000
29.8000 37.4447 1.0000
29.8100 44.9331 1.0000
29.8200 41.3378 1.0000
29.8300 41.8187 1.0000
29.8400 37.1294 1.0000
29.8500 41.0439 1.0000
29.8600 41.3818 1.0000
29.8700 39.6923 1.0000
29.8800 40.0735 1.0000
29.8900 36.5839 1.0000
29.9000 47.4655 1.0000
29.9100 32.7859 1.0000
29.9200 43.9281 1.0000
29.9300 32.5916 1.0000
29.9400 27.5462 1.0000
29.9500 45.5064 1.0000
29.9600 51.1167 1.0000
29.9700 32.6519 1.0000
29.9800 42.6064 1.0000
29.9900 50.0034 1.0000
30.0000 39.8966 1.0000
30.0100 36.3223 1.0000
30.0200 42.6446 1.0000
30.0300 31.6671 1.0000
30.0400 53.4051 1.0000
30.0500 39.2109 1.0000
30.0600 45.3461 1.0000
30.0700 41.1056 1.0000
30.0800 40.7019 1.0000
30.0900 40.5064 1.0000
30.1000 53.3862 1.0000
30.1100 38.3756 1.0000
30.1200 40.0842 1.0000
30.1300 41.2838 1.0000
30.1400 46.9544 1.0000
30.1500 43.3915 1.0000
30.1600 48.6849 1.0000
30.1700 38.8241 1.0000
30.1800 41.8556 1.0000
30.1900 42.4219 1.0000
30.2000 53.7917 1.0000
30.2100 31.2129 1.0000
30.2200 36.5100 1.0000
30.2300 42.2827 1.0000
30.2400 36.9901 1.0000
30.2500 42.1947 1.0000
30.2600 39.4872 1.0000
30.2700 39.3893 1.0000
30.2800 32.8440 1.0000
30.2900 34.0209 1.0000
30.3000 30.2260 1.0000
30.3100 33.9183 1.0000
30.3200 29.1330 1.0000
30.3300 43.5624 1.0000
30.3400 33.3161 1.0000
30.3500 35.5455 1.0000
30.3600 34.5648 1.0000
30.3700 35.9778 1.0000
30.3800 32.3254 1.0000
30.3900 31.0531 1.0000
30.4000 46.5899 1.0000
30.4100 45.4490 1.0000
30.4200 54.2237 1.0000
30.4300 48.8263 1.0000
30.4400 34.5738 1.0000
30.4500 32.7200 1.0000
30.4600 40.2129 1.0000
30.4700 49.2360 1.0000
30.4800 38.5134 1.0000
30.4900 34.9905 1.0000
30.5000 29.2230 1.0000
30.5100 34.8852 1.0000
30.5200 32.5039 1.0000
30.5300 37.5818 1.0000
30.5400 45.0146 1.0000
30.5500 38.1483 1.0000
30.5600 45.8410 1.0000
30.5700 34.3848 1.0000
30.5800 36.3790 1.0000
30.5900 40.2811 1.0000
30.6000 38.2864 1.0000
30.6100 47.5719 1.0000
30.6200 30.8010 1.0000
30.6300 41.1543 1.0000
30.6400 36.4835 1.0000
30.6500 30.9591 1.0000
30.6600 39.0218 1.0000
30.6700 47.5807 1.0000
30.6800 43.5226 1.0000
30.6900 29.9022 1.0000
30.7000 42.4263 1.0000
30.7100 46.1442 1.0000
30.7200 44.4221 1.0000
30.7300 48.9416 1.0000
30.7400 38.5469 1.0000
30.7500 45.0368 1.0000
30.7600 44.6750 1.0000
30.7700 49.8058 1.0000
30.7800 49.0080 1.0000
30.7900 45.5790 1.0000
30.8000 40.0947 1.0000
30.8100 38.1660 1.0000
30.8200 47.0080 1.0000
30.8300 35.8105 1.0000
30.8400 42.4676 1.0000
30.8500 41.2648 1.0000
30.8600 51.5764 1.0000
30.8700 43.2350 1.0000
30.8800 40.3579 1.0000
30.8900 35.8911 1.0000
30.9000 44.6916 1.0000
30.9100 47.1230 1.0000
30.9200 42.7250 1.0000
30.9300 48.1917 1.0000
30.9400 37.0590 1.0000
30.9500 44.5822 1.0000
30.9600 46.0926 1.0000
30.9700 37.6921 1.0000
30.9800 33.5454 1.0000
30.9900 43.3709 1.0000
31.0000 40.5742 1.0000
31.0100 36.3489 1.0000
31.0200 47.6531 1.0000
31.0300 38.0152 1.0000
31.0400 46.2989 1.0000
31.0500 43.1655 1.0000
31.0600 47.0632 1.0000
31.0700 44.7920 1.0000
31.0800 36.4698 1.0000
31.0900 51.4951 1.0000
31.1000 35.0874 1.0000
31.1100 37.5024 1.0000
31.1200 42.9876 1.0000
31.1300 37.7726 1.0000
31.1400 38.9321 1.0000
31.1500 38.7273 1.0000
31.1600 33.4140 1.0000
31.1700 47.9848 1.0000
31.1800 48.1430 1.0000
31.1900 27.8625 1.0000
31.2000 37.5007 1.0000
31.2100 30.0073 1.0000
31.2200 42.0202 1.0000
31.2300 44.8714 1.0000
31.2400 39.2502 1.0000
31.2500 41.5236 1.0000
31.2600 51.8939 1.0000
31.2700 40.1416 1.0000
31.2800 50.5860 1.0000
31.2900 36.6148 1.0000
31.3000 40.9478 1.0000
31.3100 37.0795 1.0000
31.3200 36.6247 1.0000
31.3300 36.5856 1.0000
31.3400 42.9414 1.0000
31.3500 49.2591 1.0000
31.3600 35.1009 1.0000
31.3700 43.5226 1.0000
31.3800 44.9987 1.0000
31.3900 46.6894 1.0000
31.4000 45.3623 1.0000
31.4100 40.3406 1.0000
31.4200 46.7062 1.0000
31.4300 39.1171 1.0000
31.4400 32.1790 1.0000
31.4500 38.3187 1.0000
31.4600 39.1775 1.0000
31.4700 34.6222 1.0000
31.4800 37.6070 1.0000
31.4900 44.8185 1.0000
31.5000 48.8969 1.0000
31.5100 37.4033 1.0000
31.5200 47.9595 1.0000
31.5300 41.9847 1.0000
31.5400 52.5805 1.0000
31.5500 61.5796 1.0000
31.5600 47.8473 1.0000
31.5700 55.3233 1.0000
31.5800 74.7390 1.0000
31.5900 61.8315 1.0000
31.6000 79.4949 1.0000
31.6100 63.3589 1.0000
31.6200 75.0401 1.0000
31.6300 89.2950 1.0000
31.6400 88.0332 1.0000
31.6500 70.9344 1.0000
31.6600 90.9745 1.0000
31.6700 88.9222 1.0000
31.6800 99.8011 1.0000
31.6900 98.8308 1.0000
31.7000 109.9206 1.0000
31.7100 111.0157 1.0000
31.7200 99.7141 1.0000
31.7300 96.3259 1.0000
31.7400 101.8100 1.0000
31.7500 105.5292 1.0000
31.7600 109.7779 1.0000
31.7700 95.6513 1.0000
31.7800 108.3039 1.0000
31.7900 102.5473 1.0000
31.8000 100.9086 1.0000
31.8100 119.5905 1.0000
31.8200 97.5952 1.0000
31.8300 84.8762 1.0000
31.8400 80.5741 1.0000
31.8500 99.9338 1.0000
31.8600 104.4928 1.0000
31.8700 79.6961 1.0000
31.8800 97.4881 1.0000
31.8900 101.2953 1.0000
31.9000 97.1659 1.0000
31.9100 102.2319 1.0000
31.9200 86.9353 1.0000
31.9300 82.3426 1.0000
31.9400 75.8907 1.0000
31.9500 92.8926 1.0000
31.9600 86.7229 1.0000
31.9700 93.9426 1.0000
31.9800 89.7734 1.0000
31.9900 102.2925 1.0000
32.0000 90.1304 1.0000
32.0100 103.7329 1.0000
32.0200 95.1159 1.0000
32.0300 107.8557 1.0000
32.0400 103.3311 1.0000
32.0500 113.9379 1.0000
32.0600 107.6727 1.0000
32.0700 111.8719 1.0000
32.0800 105.1907 1.0000
32.0900 94.3774 1.0000
32.1000 99.7046 1.0000
32.1100 110.2499 1.0000
32.1200 101.1179 1.0000
32.1300 110.8090 1.0000
32.1400 104.7255 1.0000
32.1500 91.7644 1.0000
32.1600 79.5339 1.0000
32.1700 77.7179 1.0000
32.1800 94.1898 1.0000
32.1900 78.7655 1.0000
32.2000 80.0038 1.0000
32.2100 67.4967 1.0000
32.2200 80.0319 1.0000
32.2300 64.2206 1.0000
32.2400 60.1390 1.0000
32.2500 61.7427 1.0000
32.2600 50.0574 1.0000
32.2700 54.9524 1.0000
32.2800 57.0267 1.0000
32.2900 56.6584 1.0000
32.3000 50.4315 1.0000
32.3100 39.9289 1.0000
32.3200 47.0670 1.0000
32.3300 42.8745 1.0000
32.3400 41.3457 1.0000
32.3500 37.2955 1.0000
32.3600 42.6092 1.0000
32.3700 39.9963 1.0000
32.3800 42.4109 1.0000
32.3900 26.8960 1.0000
32.4000 39.4245 1.0000
32.4100 29.7019 1.0000
32.4200 34.3213 1.0000
32.4300 34.7668 1.0000
32.4400 40.5964 1.0000
32.4500 38.2645 1.0000
32.4600 29.2846 1.0000
32.4700 36.2727 1.0000
32.4800 28.1375 1.0000
32.4900 30.2769 1.0000
32.5000 40.5491 1.0000
32.5100 36.3557 1.0000
32.5200 31.3738 1.0000
32.5300 30.3110 1.0000
32.5400 41.0836 1.0000
32.5500 30.5507 1.0000
32.5600 30.2391 1.0000
32.5700 31.3554 1.0000
32.5800 31.1474 1.0000
32.5900 29.3472 1.0000
32.6000 41.5531 1.0000
32.6100 38.0931 1.0000
32.6200 22.8651 1.0000
32.6300 37.1827 1.0000
32.6400 28.3667 1.0000
32.6500 35.4468 1.0000
32.6600 30.1978 1.0000
32.6700 39.4431 1.0000
32.6800 29.7395 1.0000
32.6900 33.3528 1.0000
32.7000 26.5121 1.0000
32.7100 47.9516 1.0000
32.7200 38.9345 1.0000
32.7300 35.5221 1.0000
32.7400 37.7601 1.0000
32.7500 33.3319 1.0000
32.7600 28.2971 1.0000
32.7700 35.0913 1.0000
32.7800 34.9816 1.0000
32.7900 21.6992 1.0000
32.8000 41.2241 1.0000
32.8100 26.6421 1.0000
32.8200 38.7196 1.0000
32.8300 35.8389 1.0000
32.8400 26.5254 1.0000
32.8500 29.8979 1.0000
32.8600 27.4419 1.0000
32.8700 38.6404 1.0000
32.8800 36.7890 1.0000
32.8900 35.1051 1.0000
32.9000 31.9280 1.0000
32.9100 36.3243 1.0000
32.9200 32.8055 1.0000
32.9300 31.1338 1.0000
32.9400 30.9125 1.0000
32.9500 39.9986 1.0000
32.9600 23.1314 1.0000
32.9700 30.6816 1.0000
32.9800 29.1858 1.0000
32.9900 32.5405 1.0000
33.0000 39.7766 1.0000
33.0100 31.0296 1.0000
33.0200 28.0215 1.0000
33.0300 21.0402 1.0000
33.0400 31.1540 1.0000
33.0500 27.7991 1.0000
33.0600 30.7183 1.0000
33.0700 34.3374 1.0000
33.0800 29.7055 1.0000
33.0900 33.6107 1.0000
33.1000 30.3313 1.0000
33.1100 28.8303 1.0000
33.1200 24.7179 1.0000
33.1300 29.6280 1.0000
33.1400 38.4870 1.0000
33.1500 28.8376 1.0000
33.1600 26.2153 1.0000
33.1700 37.9826 1.0000
33.1800 35.3733 1.0000
33.1900 22.4986 1.0000
33.2000 40.5673 1.0000
33.2100 36.3824 1.0000
33.2200 33.0748 1.0000
33.2300 26.1549 1.0000
33.2400 33.1416 1.0000
33.2500 34.4734 1.0000
33.2600 25.2489 1.0000
33.2700 34.6668 1.0000
33.2800 23.2617 1.0000
33.2900 38.9688 1.0000
33.3000 25.9030 1.0000
33.3100 37.5940 1.0000
33.3200 40.8708 1.0000
33.3300 32.7542 1.0000
33.3400 31.8662 1.0000
33.3500 27.3122 1.0000
33.3600 48.1874 1.0000
33.3700 37.9933 1.0000
33.3800 27.3329 1.0000
33.3900 28.6369 1.0000
33.4000 26.0927 1.0000
33.4100 38.5927 1.0000
33.4200 33.8578 1.0000
33.4300 48.8321 1.0000
33.4400 32.4288 1.0000
33.4500 37.5235 1.0000
33.4600 39.2297 1.0000
33.4700 40.5726 1.0000
33.4800 41.7640 1.0000
33.4900 41.8951 1.0000
33.5000 24.2137 1.0000
33.5100 36.6710 1.0000
33.5200 50.5304 1.0000
33.5300 49.8026 1.0000
33.5400 37.6545 1.0000
33.5500 46.2424 1.0000
33.5600 33.4435 1.0000
33.5700 38.4719 1.0000
33.5800 37.9225 1.0000
33.5900 40.4785 1.0000
33.6000 50.4531 1.0000
33.6100 27.4284 1.0000
33.6200 33.1370 1.0000
33.6300 33.5231 1.0000
33.6400 40.4260 1.0000
33.6500 34.3011 1.0000
33.6600 33.0164 1.0000
33.6700 34.4839 1.0000
33.6800 42.8665 1.0000
33.6900 30.2446 1.0000
33.7000 35.0036 1.0000
33.7100 30.5198 1.0000
33.7200 32.3725 1.0000
33.7300 34.5744 1.0000
33.7400 34.3851 1.0000
33.7500 39.2923 1.0000
33.7600 37.3295 1.0000
33.7700 29.1844 1.0000
33.7800 27.6983 1.0000
33.7900 40.6949 1.0000
33.8000 34.3020 1.0000
33.8100 32.5662 1.0000
33.8200 32.9305 1.0000
33.8300 36.2031 1.0000
33.8400 26.5836 1.0000
33.8500 22.1737 1.0000
33.8600 35.3380 1.0000
33.8700 29.2270 1.0000
33.8800 28.4116 1.0000
33.8900 29.8989 1.0000
33.9000 24.4170 1.0000
33.9100 33.1570 1.0000
33.9200 40.3142 1.0000
33.9300 33.2559 1.0000
33.9400 26.0999 1.0000
33.9500 26.1627 1.0000
33.9600 37.8242 1.0000
33.9700 37.6274 1.0000
33.9800 28.7021 1.0000
33.9900 33.4701 1.0000
34.0000 38.1477 1.0000
34.0100 28.7831 1.0000
34.0200 16.9865 1.0000
34.0300 35.4602 1.0000
34.0400 25.2458 1.0000
34.0500 22.4256 1.0000
34.0600 38.9610 1.0000
34.0700 25.8980 1.0000
34.0800 34.4965 1.0000
34.0900 39.5840 1.0000
34.1000 25.9538 1.0000
34.1100 26.9389 1.0000
34.1200 30.8629 1.0000
34.1300 29.9000 1.0000
34.1400 25.3429 1.0000
34.1500 37.6024 1.0000
34.1600 31.5472 1.0000
34.1700 33.9620 1.0000
34.1800 44.0303 1.0000
34.1900 32.8233 1.0000
34.2000 28.0928 1.0000
34.2100 37.3188 1.0000
34.2200 32.4068 1.0000
34.2300 34.3737 1.0000
34.2400 34.2023 1.0000
34.2500 22.3887 1.0000
34.2600 22.7067 1.0000
34.2700 23.6378 1.0000
34.2800 28.9467 1.0000
34.2900 26.6056 1.0000
34.3000 27.7020 1.0000
34.3100 32.9749 1.0000
34.3200 18.2486 1.0000
34.3300 27.5748 1.0000
34.3400 29.5437 1.0000
34.3500 33.0244 1.0000
34.3600 33.3233 1.0000
34.3700 22.2469 1.0000
34.3800 35.4398 1.0000
34.3900 48.9509 1.0000
34.4000 33.3373 1.0000
34.4100 29.3653 1.0000
34.4200 29.1796 1.0000
34.4300 22.5725 1.0000
34.4400 15.8065 1.0000
34.4500 32.5276 1.0000
34.4600 32.2861 1.0000
34.4700 31.3420 1.0000
34.4800 26.3965 1.0000
34.4900 22.4715 1.0000
34.5000 28.9588 1.0000
34.5100 31.4117 1.0000
34.5200 23.0757 1.0000
34.5300 28.7911 1.0000
34.5400 36.8898 1.0000
34.5500 29.4080 1.0000
34.5600 18.2420 1.0000
34.5700 26.0293 1.0000
34.5800 33.8308 1.0000
34.5900 29.0047 1.0000
34.6000 36.9363 1.0000
34.6100 31.9592 1.0000
34.6200 27.6308 1.0000
34.6300 29.9344 1.0000
34.6400 22.9265 1.0000
34.6500 29.8427 1.0000
34.6600 21.1017 1.0000
34.6700 19.7779 1.0000
34.6800 35.2917 1.0000
34.6900 31.6626 1.0000
34.7000 26.9627 1.0000
34.7100 26.5982 1.0000
34.7200 30.2263 1.0000
34.7300 26.5189 1.0000
34.7400 27.1231 1.0000
34.7500 28.5057 1.0000
34.7600 37.1231 1.0000
34.7700 20.6705 1.0000
34.7800 29.8487 1.0000
34.7900 31.4283 1.0000
34.8000 27.4965 1.0000
34.8100 27.4372 1.0000
34.8200 20.3799 1.0000
34.8300 25.6221 1.0000
34.8400 21.9992 1.0000
34.8500 20.5075 1.0000
34.8600 27.0689 1.0000
34.8700 32.4027 1.0000
34.8800 35.4212 1.0000
34.8900 25.3569 1.0000
34.9000 21.8123 1.0000
34.9100 34.2879 1.0000
34.9200 25.3329 1.0000
34.9300 32.0072 1.0000
34.9400 23.4034 1.0000
34.9500 18.9809 1.0000
34.9600 31.2868 1.0000
34.9700 26.2528 1.0000
34.9800 27.5139 1.0000
34.9900 30.7722 1.0000
35.0000 26.7589 1.0000
35.0100 28.7592 1.0000
35.0200 32.6143 1.0000
35.0300 21.6529 1.0000
35.0400 31.6957 1.0000
35.0500 28.6960 1.0000
35.0600 23.7815 1.0000
35.0700 28.5332 1.0000
35.0800 33.2307 1.0000
35.0900 18.0342 1.0000
35.1000 27.6081 1.0000
35.1100 23.2209 1.0000
35.1200 26.4089 1.0000
35.1300 31.3695 1.0000
35.1400 22.3751 1.0000
35.1500 30.7210 1.0000
35.1600 15.4953 1.0000
35.1700 17.1985 1.0000
35.1800 29.4360 1.0000
35.1900 18.9512 1.0000
35.2000 24.7500 1.0000
35.2100 27.7935 1.0000
35.2200 34.0361 1.0000
35.2300 25.9409 1.0000
35.2400 22.7206 1.0000
35.2500 30.0504 1.0000
35.2600 30.9116 1.0000
35.2700 30.7215 1.0000
35.2800 30.3808 1.0000
35.2900 30.0947 1.0000
35.3000 22.9893 1.0000
35.3100 25.8177 1.0000
35.3200 20.0749 1.0000
35.3300 27.2401 1.0000
35.3400 26.2627 1.0000
35.3500 24.1774 1.0000
35.3600 22.8141 1.0000
35.3700 30.8750 1.0000
35.3800 28.0258 1.0000
35.3900 25.0241 1.0000
35.4000 26.3374 1.0000
35.4100 25.6626 1.0000
35.4200 30.8006 1.0000
35.4300 30.8531 1.0000
35.4400 25.8154 1.0000
35.4500 20.1027 1.0000
35.4600 26.2386 1.0000
35.4700 35.5432 1.0000
35.4800 39.1198 1.0000
35.4900 28.8524 1.0000
35.5000 25.6448 1.0000
35.5100 25.7390 1.0000
35.5200 26.1769 1.0000
35.5300 24.7480 1.0000
35.5400 28.0041 1.0000
35.5500 23.2042 1.0000
35.5600 28.4590 1.0000
35.5700 33.5948 1.0000
35.5800 27.1656 1.0000
35.5900 22.3576 1.0000
35.6000 21.1292 1.0000
35.6100 23.9168 1.0000
35.6200 35.6318 1.0000
35.6300 31.3833 1.0000
35.6400 22.6609 1.0000
35.6500 30.4714 1.0000
35.6600 27.6334 1.0000
35.6700 20.2024 1.0000
35.6800 23.8246 1.0000
35.6900 22.2493 1.0000
35.7000 32.0884 1.0000
35.7100 17.7562 1.0000
35.7200 37.2288 1.0000
35.7300 26.2381 1.0000
35.7400 20.0912 1.0000
35.7500 23.2611 1.0000
35.7600 34.4227 1.0000
35.7700 22.4878 1.0000
35.7800 21.2189 1.0000
35.7900 34.2759 1.0000
35.8000 30.3711 1.0000
35.8100 18.1131 1.0000
35.8200 25.7055 1.0000
35.8300 22.0547 1.0000
35.8400 30.1194 1.0000
35.8500 20.4446 1.0000
35.8600 25.2843 1.0000
35.8700 20.2816 1.0000
35.8800 25.3995 1.0000
35.8900 21.8213 1.0000
35.9000 25.8448 1.0000
35.9100 18.5477 1.0000
35.9200 25.3866 1.0000
35.9300 17.8075 1.0000
35.9400 24.4617 1.0000
35.9500 19.3642 1.0000
35.9600 20.2945 1.0000
35.9700 20.8051 1.0000
35.9800 20.7785 1.0000
35.9900 22.1132 1.0000
36.0000 13.8793 1.0000
36.0100 15.0498 1.0000
36.0200 22.2643 1.0000
36.0300 22.8339 1.0000
36.0400 16.7132 1.0000
36.0500 32.2609 1.0000
36.0600 15.3104 1.0000
36.0700 22.3950 1.0000
36.0800 24.1304 1.0000
36.0900 21.6523 1.0000
36.1000 23.4847 1.0000
36.1100 27.2996 1.0000
36.1200 21.2110 1.0000
36.1300 24.7402 1.0000
36.1400 21.4010 1.0000
36.1500 21.7334 1.0000
36.1600 18.2453 1.0000
36.1700 26.5610 1.0000
36.1800 24.3464 1.0000
36.1900 23.6318 1.0000
36.2000 20.1164 1.0000
36.2100 29.3688 1.0000
36.2200 23.8873 1.0000
36.2300 18.8041 1.0000
36.2400 17.9954 1.0000
36.2500 21.7085 1.0000
36.2600 20.6531 1.0000
36.2700 19.2431 1.0000
36.2800 24.4719 1.0000
36.2900 28.0252 1.0000
36.3000 15.8108 1.0000
36.3100 32.2859 1.0000
36.3200 25.7388 1.0000
36.3300 29.3011 1.0000
36.3400 27.7121 1.0000
36.3500 14.6455 1.0000
36.3600 24.7135 1.0000
36.3700 19.6962 1.0000
36.3800 27.3462 1.0000
36.3900 25.5905 1.0000
36.4000 23.8345 1.0000
36.4100 25.3201 1.0000
36.4200 18.9091 1.0000
36.4300 27.7566 1.0000
36.4400 30.4684 1.0000
36.4500 14.7838 1.0000
36.4600 25.9320 1.0000
36.4700 22.3916 1.0000
36.4800 26.8953 1.0000
36.4900 25.6389 1.0000
36.5000 23.0434 1.0000
36.5100 29.1143 1.0000
36.5200 36.8148 1.0000
36.5300 24.7756 1.0000
36.5400 28.4678 1.0000
36.5500 21.3576 1.0000
36.5600 24.6020 1.0000
36.5700 25.3943 1.0000
36.5800 26.1947 1.0000
36.5900 19.6427 1.0000
36.6000 34.7696 1.0000
36.6100 20.7291 1.0000
36.6200 33.4850 1.0000
36.6300 32.2284 1.0000
36.6400 16.2878 1.0000
36.6500 16.2552 1.0000
36.6600 26.0594 1.0000
36.6700 20.5463 1.0000
36.6800 30.1280 1.0000
36.6900 26.7395 1.0000
36.7000 23.3454 1.0000
36.7100 32.4463 1.0000
36.7200 20.1636 1.0000
36.7300 33.5564 1.0000
36.7400 19.0210 1.0000
36.7500 24.8472 1.0000
36.7600 27.1178 1.0000
36.7700 23.7529 1.0000
36.7800 23.9273 1.0000
36.7900 26.4754 1.0000
36.8000 19.7887 1.0000
36.8100 22.7728 1.0000
36.8200 21.5359 1.0000
36.8300 29.5632 1.0000
36.8400 20.9838 1.0000
36.8500 19.3773 1.0000
36.8600 28.1455 1.0000
36.8700 24.4628 1.0000
36.8800 26.2419 1.0000
36.8900 24.3047 1.0000
36.9000 23.5528 1.0000
36.9100 25.8174 1.0000
36.9200 24.4050 1.0000
36.9300 18.4104 1.0000
36.9400 21.3657 1.0000
36.9500 22.4088 1.0000
36.9600 20.9626 1.0000
36.9700 18.8499 1.0000
36.9800 29.2934 1.0000
36.9900 24.2689 1.0000
37.0000 21.4654 1.0000
37.0100 16.5068 1.0000
37.0200 20.0783 1.0000
37.0300 27.6402 1.0000
37.0400 23.1553 1.0000
37.0500 16.6187 1.0000
37.0600 30.3878 1.0000
37.0700 28.5626 1.0000
37.0800 22.4938 1.0000
37.0900 18.5624 1.0000
37.1000 17.2144 1.0000
37.1100 16.5259 1.0000
37.1200 22.8346 1.0000
37.1300 30.0220 1.0000
37.1400 28.5566 1.0000
37.1500 29.0993 1.0000
37.1600 29.8537 1.0000
37.1700 20.4851 1.0000
37.1800 27.4605 1.0000
37.1900 29.4707 1.0000
37.2000 29.5413 1.0000
37.2100 25.0612 1.0000
37.2200 17.6044 1.0000
37.2300 32.7241 1.0000
37.2400 26.1675 1.0000
37.2500 25.8107 1.0000
37.2600 31.1203 1.0000
37.2700 20.3960 1.0000
37.2800 27.7673 1.0000
37.2900 24.9094 1.0000
37.3000 29.6460 1.0000
37.3100 26.2874 1.0000
37.3200 25.3889 1.0000
37.3300 29.5136 1.0000
37.3400 20.2252 1.0000
37.3500 31.4765 1.0000
37.3600 26.6720 1.0000
37.3700 36.1569 1.0000
37.3800 31.5282 1.0000
37.3900 31.0158 1.0000
37.4000 18.7163 1.0000
37.4100 24.8570 1.0000
37.4200 28.6372 1.0000
37.4300 21.2430 1.0000
37.4400 27.9612 1.0000
37.4500 29.7615 1.0000
37.4600 32.7274 1.0000
37.4700 25.4419 1.0000
37.4800 25.4773 1.0000
37.4900 28.5521 1.0000
37.5000 19.6593 1.0000
37.5100 18.1274 1.0000
37.5200 35.5727 1.0000
37.5300 22.3797 1.0000
37.5400 24.2731 1.0000
37.5500 31.5605 1.0000
37.5600 33.3321 1.0000
37.5700 26.3560 1.0000
37.5800 36.1583 1.0000
37.5900 24.5252 1.0000
37.6000 19.2249 1.0000
37.6100 29.1675 1.0000
37.6200 21.8746 1.0000
37.6300 26.9231 1.0000
37.6400 21.8378 1.0000
37.6500 24.0853 1.0000
37.6600 18.6491 1.0000
37.6700 18.8704 1.0000
37.6800 21.1533 1.0000
37.6900 26.4796 1.0000
37.7000 20.9357 1.0000
37.7100 16.9954 1.0000
37.7200 23.9999 1.0000
37.7300 23.6581 1.0000
37.7400 29.6571 1.0000
37.7500 34.4583 1.0000
37.7600 18.7451 1.0000
37.7700 24.7721 1.0000
37.7800 14.6746 1.0000
37.7900 19.6632 1.0000
37.8000 27.6234 1.0000
37.8100 24.1190 1.0000
37.8200 18.2359 1.0000
37.8300 32.3030 1.0000
37.8400 18.6671 1.0000
37.8500 26.0202 1.0000
37.8600 24.1680 1.0000
37.8700 13.0861 1.0000
37.8800 22.5216 1.0000
37.8900 25.8746 1.0000
37.9000 28.2674 1.0000
37.9100 15.4745 1.0000
37.9200 24.0402 1.0000
37.9300 24.9249 1.0000
37.9400 18.9545 1.0000
37.9500 14.2970 1.0000
37.9600 21.2585 1.0000
37.9700 20.9066 1.0000
37.9800 20.3500 1.0000
37.9900 21.2562 1.0000
38.0000 21.6478 1.0000
38.0100 18.0949 1.0000
38.0200 24.0164 1.0000
38.0300 15.2291 1.0000
38.0400 15.6189 1.0000
38.0500 21.5805 1.0000
38.0600 32.9310 1.0000
38.0700 22.5876 1.0000
38.0800 21.5271 1.0000
38.0900 15.6419 1.0000
38.1000 13.8015 1.0000
38.1100 18.9637 1.0000
38.1200 14.0236 1.0000
38.1300 26.0104 1.0000
38.1400 24.2435 1.0000
38.1500 13.3208 1.0000
38.1600 21.8540 1.0000
38.1700 14.3378 1.0000
38.1800 15.5269 1.0000
38.1900 22.1451 1.0000
38.2000 25.4732 1.0000
38.2100 30.6178 1.0000
38.2200 21.4487 1.0000
38.2300 23.1329 1.0000
38.2400 27.1014 1.0000
38.2500 20.1953 1.0000
38.2600 16.4491 1.0000
38.2700 28.9439 1.0000
38.2800 28.7708 1.0000
38.2900 17.7438 1.0000
38.3000 20.3358 1.0000
38.3100 26.4398 1.0000
38.3200 24.0183 1.0000
38.3300 24.2150 1.0000
38.3400 28.7308 1.0000
38.3500 29.3242 1.0000
38.3600 19.3242 1.0000
38.3700 26.2281 1.0000
38.3800 24.2477 1.0000
38.3900 25.3565 1.0000
38.4000 25.4095 1.0000
38.4100 19.9168 1.0000
38.4200 23.5644 1.0000
38.4300 30.8136 1.0000
38.4400 12.2562 1.0000
38.4500 24.2306 1.0000
38.4600 21.6593 1.0000
38.4700 24.6941 1.0000
38.4800 19.4671 1.0000
38.4900 23.5586 1.0000
38.5000 21.6056 1.0000
38.5100 22.0098 1.0000
38.5200 23.3593 1.0000
38.5300 17.9720 1.0000
38.5400 21.9640 1.0000
38.5500 28.7970 1.0000
38.5600 29.9534 1.0000
38.5700 20.6536 1.0000
38.5800 21.4241 1.0000
38.5900 25.6019 1.0000
38.6000 21.4808 1.0000
38.6100 22.2775 1.0000
38.6200 23.7740 1.0000
38.6300 19.9093 1.0000
38.6400 22.0667 1.0000
38.6500 28.6266 1.0000
38.6600 24.1392 1.0000
38.6700 22.6460 1.0000
38.6800 23.1244 1.0000
38.6900 13.4322 1.0000
38.7000 31.8652 1.0000
38.7100 22.6786 1.0000
38.7200 25.8199 1.0000
38.7300 20.5608 1.0000
38.7400 24.8461 1.0000
38.7500 22.9618 1.0000
38.7600 16.9397 1.0000
38.7700 32.0089 1.0000
38.7800 33.1239 1.0000
38.7900 26.8698 1.0000
38.8000 28.3982 1.0000
38.8100 23.1180 1.0000
38.8200 25.8933 1.0000
38.8300 26.2810 1.0000
38.8400 29.3504 1.0000
38.8500 20.7350 1.0000
38.8600 26.4680 1.0000
38.8700 33.4575 1.0000
38.8800 26.2962 1.0000
38.8900 22.0068 1.0000
38.9000 27.8300 1.0000
38.9100 28.3527 1.0000
38.9200 27.4990 1.0000
38.9300 33.6456 1.0000
38.9400 29.4668 1.0000
38.9500 34.9533 1.0000
38.9600 31.6596 1.0000
38.9700 26.8935 1.0000
38.9800 27.5804 1.0000
38.9900 31.0099 1.0000
39.0000 26.5779 1.0000
39.0100 31.1400 1.0000
39.0200 40.9680 1.0000
39.0300 24.6063 1.0000
39.0400 31.8885 1.0000
39.0500 31.6509 1.0000
39.0600 32.9430 1.0000
39.0700 31.6157 1.0000
39.0800 39.1095 1.0000
39.0900 22.9630 1.0000
39.1000 23.2957 1.0000
39.1100 16.8952 1.0000
39.1200 31.6676 1.0000
39.1300 22.1049 1.0000
39.1400 28.6582 1.0000
39.1500 19.6347 1.0000
39.1600 25.8267 1.0000
39.1700 36.6124 1.0000
39.1800 21.6131 1.0000
39.1900 24.0657 1.0000
39.2000 33.3065 1.0000
39.2100 24.4644 1.0000
39.2200 30.3380 1.0000
39.2300 26.0285 1.0000
39.2400 29.7008 1.0000
39.2500 15.7717 1.0000
39.2600 21.8830 1.0000
39.2700 29.9164 1.0000
39.2800 23.6365 1.0000
39.2900 25.3279 1.0000
39.3000 20.4562 1.0000
39.3100 27.5062 1.0000
39.3200 27.3824 1.0000
39.3300 31.4655 1.0000
39.3400 31.9281 1.0000
39.3500 27.8600 1.0000
39.3600 28.6349 1.0000
39.3700 38.8268 1.0000
39.3800 41.7125 1.0000
39.3900 34.0157 1.0000
39.4000 33.9410 1.0000
39.4100 42.7179 1.0000
39.4200 36.4297 1.0000
39.4300 35.0290 1.0000
39.4400 35.9341 1.0000
39.4500 47.9030 1.0000
39.4600 41.4348 1.0000
39.4700 43.4620 1.0000
39.4800 44.3831 1.0000
39.4900 37.6271 1.0000
39.5000 43.3181 1.0000
39.5100 44.9604 1.0000
39.5200 43.3020 1.0000
39.5300 28.4176 1.0000
39.5400 38.4983 1.0000
39.5500 39.7845 1.0000
39.5600 42.9059 1.0000
39.5700 36.9773 1.0000
39.5800 38.8687 1.0000
39.5900 40.1415 1.0000
39.6000 26.8713 1.0000
39.6100 26.5021 1.0000
39.6200 26.7107 1.0000
39.6300 32.1828 1.0000
39.6400 32.2242 1.0000
39.6500 44.8410 1.0000
39.6600 25.6394 1.0000
39.6700 11.6086 1.0000
39.6800 25.8013 1.0000
39.6900 26.5876 1.0000
39.7000 35.1062 1.0000
39.7100 20.7072 1.0000
39.7200 21.2439 1.0000
39.7300 17.8810 1.0000
39.7400 25.5026 1.0000
39.7500 29.3855 1.0000
39.7600 30.0615 1.0000
39.7700 16.3762 1.0000
39.7800 27.0799 1.0000
39.7900 27.1403 1.0000
39.8000 22.9882 1.0000
39.8100 23.8309 1.0000
39.8200 27.2799 1.0000
39.8300 12.8769 1.0000
39.8400 26.8569 1.0000
39.8500 17.5498 1.0000
39.8600 27.9948 1.0000
39.8700 18.4957 1.0000
39.8800 21.2691 1.0000
39.8900 21.2111 1.0000
39.9000 24.6498 1.0000
39.9100 18.4355 1.0000
39.9200 18.8614 1.0000
39.9300 17.0790 1.0000
39.9400 26.6343 1.0000
39.9500 23.9057 1.0000
39.9600 19.1638 1.0000
39.9700 17.0514 1.0000
39.9800 24.7367 1.0000
39.9900 25.3374 1.0000
40.0000 29.9638 1.0000
40.0100 21.4433 1.0000
40.0200 17.0592 1.0000
40.0300 20.1137 1.0000
40.0400 26.9564 1.0000
40.0500 27.9515 1.0000
40.0600 17.7685 1.0000
40.0700 25.1308 1.0000
40.0800 17.6146 1.0000
40.0900 15.8980 1.0000
40.1000 16.9862 1.0000
40.1100 20.4292 1.0000
40.1200 17.7327 1.0000
40.1300 23.4745 1.0000
40.1400 28.2293 1.0000
40.1500 24.2649 1.0000
40.1600 21.9504 1.0000
40.1700 29.9168 1.0000
40.1800 20.2120 1.0000
40.1900 25.0327 1.0000
40.2000 13.6118 1.0000
40.2100 21.9574 1.0000
40.2200 30.1926 1.0000
40.2300 26.7781 1.0000
40.2400 19.8072 1.0000
40.2500 24.7131 1.0000
40.2600 21.7270 1.0000
40.2700 21.8273 1.0000
40.2800 15.5460 1.0000
40.2900 25.6469 1.0000
40.3000 19.0218 1.0000
40.3100 17.0794 1.0000
40.3200 19.2577 1.0000
40.3300 17.4727 1.0000
40.3400 28.6607 1.0000
40.3500 18.1280 1.0000
40.3600 23.8041 1.0000
40.3700 18.2890 1.0000
40.3800 24.5099 1.0000
40.3900 17.8842 1.0000
40.4000 22.0975 1.0000
40.4100 24.3166 1.0000
40.4200 26.6135 1.0000
40.4300 22.0987 1.0000
40.4400 27.9117 1.0000
40.4500 12.9995 1.0000
40.4600 27.2255 1.0000
40.4700 23.5782 1.0000
40.4800 20.8539 1.0000
40.4900 28.7445 1.0000
40.5000 19.9609 1.0000
40.5100 20.8071 1.0000
40.5200 18.5242 1.0000
40.5300 19.6299 1.0000
40.5400 26.0191 1.0000
40.5500 14.5629 1.0000
40.5600 24.6295 1.0000
40.5700 19.1654 1.0000
40.5800 23.7034 1.0000
40.5900 19.3120 1.0000
40.6000 23.3253 1.0000
40.6100 20.1325 1.0000
40.6200 19.3707 1.0000
40.6300 24.2853 1.0000
40.6400 28.5095 1.0000
40.6500 26.5013 1.0000
40.6600 18.9635 1.0000
40.6700 20.3576 1.0000
40.6800 25.6579 1.0000
40.6900 25.0220 1.0000
40.7000 22.4700 1.0000
40.7100 20.9468 1.0000
40.7200 17.5419 1.0000
40.7300 19.0833 1.0000
40.7400 28.5348 1.0000
40.7500 28.5649 1.0000
40.7600 21.0931 1.0000
40.7700 22.4779 1.0000
40.7800 21.7529 1.0000
40.7900 20.0745 1.0000
40.8000 16.2780 1.0000
40.8100 25.6975 1.0000
40.8200 26.9669 1.0000
40.8300 23.2662 1.0000
40.8400 26.9368 1.0000
40.8500 16.1367 1.0000
40.8600 17.9489 1.0000
40.8700 19.0643 1.0000
40.8800 21.3421 1.0000
40.8900 18.5756 1.0000
40.9000 20.1666 1.0000
40.9100 14.2369 1.0000
40.9200 15.2802 1.0000
40.9300 25.3901 1.0000
40.9400 17.4592 1.0000
40.9500 17.2367 1.0000
40.9600 15.4559 1.0000
40.9700 19.2552 1.0000
40.9800 16.8762 1.0000
40.9900 16.8715 1.0000
41.0000 12.2859 1.0000
41.0100 21.2252 1.0000
41.0200 19.0817 1.0000
41.0300 18.0235 1.0000
41.0400 18.4789 1.0000
41.0500 27.2005 1.0000
41.0600 27.2558 1.0000
41.0700 18.5394 1.0000
41.0800 21.4923 1.0000
41.0900 15.1753 1.0000
41.1000 17.6946 1.0000
41.1100 18.4181 1.0000
41.1200 15.3009 1.0000
41.1300 19.5560 1.0000
41.1400 21.3784 1.0000
41.1500 19.1942 1.0000
41.1600 19.4746 1.0000
41.1700 19.1198 1.0000
41.1800 33.9330 1.0000
41.1900 13.7079 1.0000
41.2000 13.6169 1.0000
41.2100 22.2169 1.0000
41.2200 27.6088 1.0000
41.2300 25.7360 1.0000
41.2400 20.0062 1.0000
41.2500 22.3535 1.0000
41.2600 21.8528 1.0000
41.2700 17.5558 1.0000
41.2800 23.8405 1.0000
41.2900 25.7187 1.0000
41.3000 23.4141 1.0000
41.3100 13.2012 1.0000
41.3200 21.4590 1.0000
41.3300 19.3595 1.0000
41.3400 26.7937 1.0000
41.3500 21.7283 1.0000
41.3600 27.8469 1.0000
41.3700 31.0373 1.0000
41.3800 27.6533 1.0000
41.3900 26.3949 1.0000
41.4000 19.1629 1.0000
41.4100 24.1445 1.0000
41.4200 17.6490 1.0000
41.4300 22.6062 1.0000
41.4400 25.6089 1.0000
41.4500 16.2917 1.0000
41.4600 33.1885 1.0000
41.4700 17.4415 1.0000
41.4800 14.1913 1.0000
41.4900 25.9129 1.0000
41.5000 18.7379 1.0000
41.5100 18.1476 1.0000
41.5200 21.2035 1.0000
41.5300 20.1828 1.0000
41.5400 29.9145 1.0000
41.5500 23.7363 1.0000
41.5600 20.3684 1.0000
41.5700 28.1186 1.0000
41.5800 16.7786 1.0000
41.5900 20.6403 1.0000
41.6000 19.4776 1.0000
41.6100 19.0783 1.0000
41.6200 15.0987 1.0000
41.6300 23.1623 1.0000
41.6400 16.4327 1.0000
41.6500 26.1822 1.0000
41.6600 13.0107 1.0000
41.6700 30.3442 1.0000
41.6800 26.6691 1.0000
41.6900 23.3899 1.0000
41.7000 19.5362 1.0000
41.7100 24.9557 1.0000
41.7200 28.3916 1.0000
41.7300 15.7813 1.0000
41.7400 27.8706 1.0000
41.7500 21.7360 1.0000
41.7600 21.8100 1.0000
41.7700 21.6334 1.0000
41.7800 26.2823 1.0000
41.7900 18.1168 1.0000
41.8000 19.7048 1.0000
41.8100 30.4292 1.0000
41.8200 17.6472 1.0000
41.8300 22.2683 1.0000
41.8400 28.0037 1.0000
41.8500 18.2232 1.0000
41.8600 16.0088 1.0000
41.8700 26.6255 1.0000
41.8800 18.4018 1.0000
41.8900 22.4619 1.0000
41.9000 28.1548 1.0000
41.9100 25.0246 1.0000
41.9200 22.4402 1.0000
41.9300 29.9353 1.0000
41.9400 24.5056 1.0000
41.9500 18.6513 1.0000
41.9600 20.5193 1.0000
41.9700 22.5479 1.0000
41.9800 28.7053 1.0000
41.9900 25.4151 1.0000
42.0000 20.6869 1.0000
42.0100 16.5249 1.0000
42.0200 13.1611 1.0000
42.0300 19.1660 1.0000
42.0400 21.6428 1.0000
42.0500 25.3554 1.0000
42.0600 25.2137 1.0000
42.0700 24.7141 1.0000
42.0800 11.1871 1.0000
42.0900 19.6059 1.0000
42.1000 20.7171 1.0000
42.1100 18.9698 1.0000
42.1200 18.6897 1.0000
42.1300 18.8770 1.0000
42.1400 15.9404 1.0000
42.1500 22.4468 1.0000
42.1600 15.7217 1.0000
42.1700 15.6479 1.0000
42.1800 19.4481 1.0000
42.1900 22.6052 1.0000
42.2000 21.6219 1.0000
42.2100 14.1779 1.0000
42.2200 28.5260 1.0000
42.2300 23.8611 1.0000
42.2400 17.2819 1.0000
42.2500 21.0696 1.0000
42.2600 23.3266 1.0000
42.2700 20.9567 1.0000
42.2800 15.1541 1.0000
42.2900 30.5852 1.0000
42.3000 8.9844 1.0000
42.3100 30.8272 1.0000
42.3200 22.2788 1.0000
42.3300 24.6910 1.0000
42.3400 19.3231 1.0000
42.3500 16.3619 1.0000
42.3600 19.5714 1.0000
42.3700 20.6526 1.0000
42.3800 16.6078 1.0000
42.3900 19.2989 1.0000
42.4000 18.2075 1.0000
42.4100 26.6887 1.0000
42.4200 22.4600 1.0000
42.4300 19.1260 1.0000
42.4400 33.2033 1.0000
42.4500 17.6485 1.0000
42.4600 15.6856 1.0000
42.4700 25.1589 1.0000
42.4800 19.0555 1.0000
42.4900 23.0064 1.0000
42.5000 19.1796 1.0000
42.5100 18.6690 1.0000
42.5200 17.5282 1.0000
42.5300 23.2526 1.0000
42.5400 21.2974 1.0000
42.5500 26.0857 1.0000
42.5600 21.7707 1.0000
42.5700 9.9703 1.0000
42.5800 22.8493 1.0000
42.5900 26.7192 1.0000
42.6000 30.0542 1.0000
42.6100 23.2519 1.0000
42.6200 24.1607 1.0000
42.6300 22.9061 1.0000
42.6400 22.4487 1.0000
42.6500 29.2026 1.0000
42.6600 26.9037 1.0000
42.6700 29.6000 1.0000
42.6800 18.6672 1.0000
42.6900 25.6057 1.0000
42.7000 22.7013 1.0000
42.7100 22.9628 1.0000
42.7200 20.9983 1.0000
42.7300 14.5551 1.0000
42.7400 24.9317 1.0000
42.7500 22.7368 1.0000
42.7600 26.2966 1.0000
42.7700 23.7392 1.0000
42.7800 25.7397 1.0000
42.7900 18.3543 1.0000
42.8000 28.4384 1.0000
42.8100 22.3711 1.0000
42.8200 15.9896 1.0000
42.8300 28.4322 1.0000
42.8400 13.2502 1.0000
42.8500 23.7179 1.0000
42.8600 15.1832 1.0000
42.8700 26.7757 1.0000
42.8800 16.2618 1.0000
42.8900 16.2889 1.0000
42.9000 14.6119 1.0000
42.9100 27.6930 1.0000
42.9200 18.4087 1.0000
42.9300 26.5876 1.0000
42.9400 18.1869 1.0000
42.9500 20.7163 1.0000
42.9600 14.2552 1.0000
42.9700 21.9889 1.0000
42.9800 20.4876 1.0000
42.9900 18.2511 1.0000
43.0000 24.4712 1.0000
43.0100 17.3472 1.0000
43.0200 18.2465 1.0000
43.0300 21.7465 1.0000
43.0400 39.2832 1.0000
43.0500 19.7395 1.0000
43.0600 17.4986 1.0000
43.0700 23.9114 1.0000
43.0800 21.3700 1.0000
43.0900 24.2875 1.0000
43.1000 17.4656 1.0000
43.1100 25.4017 1.0000
43.1200 21.3665 1.0000
43.1300 18.5047 1.0000
43.1400 19.4301 1.0000
43.1500 19.3536 1.0000
43.1600 25.7383 1.0000
43.1700 21.1673 1.0000
43.1800 25.2496 1.0000
43.1900 18.4667 1.0000
43.2000 24.3383 1.0000
43.2100 16.7654 1.0000
43.2200 26.0008 1.0000
43.2300 23.0809 1.0000
43.2400 19.5791 1.0000
43.2500 25.1670 1.0000
43.2600 28.9274 1.0000
43.2700 24.0634 1.0000
43.2800 27.4377 1.0000
43.2900 22.8628 1.0000
43.3000 23.0741 1.0000
43.3100 25.8837 1.0000
43.3200 19.8753 1.0000
43.3300 30.8492 1.0000
43.3400 18.6627 1.0000
43.3500 11.2670 1.0000
43.3600 18.5576 1.0000
43.3700 19.4354 1.0000
43.3800 21.4195 1.0000
43.3900 20.7795 1.0000
43.4000 18.3710 1.0000
43.4100 16.6762 1.0000
43.4200 21.4221 1.0000
43.4300 28.2309 1.0000
43.4400 32.0462 1.0000
43.4500 21.9680 1.0000
43.4600 23.0082 1.0000
43.4700 21.5224 1.0000
43.4800 26.3628 1.0000
43.4900 17.3413 1.0000
43.5000 23.1459 1.0000
43.5100 23.3367 1.0000
43.5200 23.9246 1.0000
43.5300 27.3933 1.0000
43.5400 25.0183 1.0000
43.5500 17.7287 1.0000
43.5600 17.4184 1.0000
43.5700 21.8031 1.0000
43.5800 21.0769 1.0000
43.5900 14.5419 1.0000
43.6000 27.6414 1.0000
43.6100 26.1890 1.0000
43.6200 26.1008 1.0000
43.6300 21.4333 1.0000
43.6400 27.3786 1.0000
43.6500 25.7074 1.0000
43.6600 30.0725 1.0000
43.6700 20.4854 1.0000
43.6800 17.4589 1.0000
43.6900 21.1851 1.0000
43.7000 21.2140 1.0000
43.7100 21.3425 1.0000
43.7200 21.5521 1.0000
43.7300 15.9069 1.0000
43.7400 27.2107 1.0000
43.7500 15.6450 1.0000
43.7600 16.6353 1.0000
43.7700 19.1036 1.0000
43.7800 19.4911 1.0000
43.7900 23.1464 1.0000
43.8000 22.9808 1.0000
43.8100 25.4550 1.0000
43.8200 20.1061 1.0000
43.8300 30.5999 1.0000
43.8400 29.5885 1.0000
43.8500 35.1249 1.0000
43.8600 22.7277 1.0000
43.8700 24.1631 1.0000
43.8800 24.0504 1.0000
43.8900 21.1623 1.0000
43.9000 30.5685 1.0000
43.9100 35.9771 1.0000
43.9200 28.3243 1.0000
43.9300 27.5252 1.0000
43.9400 28.5837 1.0000
43.9500 29.2529 1.0000
43.9600 25.1957 1.0000
43.9700 40.2367 1.0000
43.9800 33.5732 1.0000
43.9900 31.5621 1.0000
44.0000 26.0137 1.0000
44.0100 27.6750 1.0000
44.0200 32.9139 1.0000
44.0300 37.2366 1.0000
44.0400 32.6390 1.0000
44.0500 35.6469 1.0000
44.0600 22.3799 1.0000
44.0700 33.6354 1.0000
44.0800 38.1097 1.0000
44.0900 39.7727 1.0000
44.1000 43.0496 1.0000
44.1100 24.9772 1.0000
44.1200 37.2898 1.0000
44.1300 42.7161 1.0000
44.1400 43.1411 1.0000
44.1500 59.4960 1.0000
44.1600 46.0814 1.0000
44.1700 33.8773 1.0000
44.1800 50.9588 1.0000
44.1900 44.1367 1.0000
44.2000 31.5942 1.0000
44.2100 29.3884 1.0000
44.2200 43.9859 1.0000
44.2300 35.6010 1.0000
44.2400 33.6436 1.0000
44.2500 47.9264 1.0000
44.2600 39.8249 1.0000
44.2700 32.1451 1.0000
44.2800 26.0419 1.0000
44.2900 30.6302 1.0000
44.3000 23.7096 1.0000
44.3100 28.8030 1.0000
44.3200 42.9005 1.0000
44.3300 32.0757 1.0000
44.3400 27.8676 1.0000
44.3500 32.0375 1.0000
44.3600 30.1348 1.0000
44.3700 18.3593 1.0000
44.3800 27.9234 1.0000
44.3900 26.8718 1.0000
44.4000 23.5489 1.0000
44.4100 22.9301 1.0000
44.4200 26.9312 1.0000
44.4300 25.6304 1.0000
44.4400 23.4329 1.0000
44.4500 23.4594 1.0000
44.4600 14.6588 1.0000
44.4700 23.7343 1.0000
44.4800 30.8440 1.0000
44.4900 30.0235 1.0000
44.5000 17.6999 1.0000
44.5100 27.2014 1.0000
44.5200 19.1964 1.0000
44.5300 24.9955 1.0000
44.5400 27.8427 1.0000
44.5500 17.2930 1.0000
44.5600 26.9283 1.0000
44.5700 20.2547 1.0000
44.5800 17.0960 1.0000
44.5900 26.1939 1.0000
44.6000 14.2263 1.0000
44.6100 16.3150 1.0000
44.6200 31.5334 1.0000
44.6300 23.8789 1.0000
44.6400 23.7825 1.0000
44.6500 17.6879 1.0000
44.6600 17.6697 1.0000
44.6700 16.7895 1.0000
44.6800 25.6944 1.0000
44.6900 27.2086 1.0000
44.7000 23.8008 1.0000
44.7100 19.4474 1.0000
44.7200 31.3300 1.0000
44.7300 22.7057 1.0000
44.7400 24.3081 1.0000
44.7500 30.1361 1.0000
44.7600 25.0093 1.0000
44.7700 18.8229 1.0000
44.7800 18.2137 1.0000
44.7900 28.9847 1.0000
44.8000 19.8670 1.0000
44.8100 12.9512 1.0000
44.8200 22.4295 1.0000
44.8300 27.2248 1.0000
44.8400 27.7041 1.0000
44.8500 24.9053 1.0000
44.8600 25.4024 1.0000
44.8700 27.4217 1.0000
44.8800 29.1650 1.0000
44.8900 14.4914 1.0000
44.9000 23.2196 1.0000
44.9100 21.1496 1.0000
44.9200 30.0221 1.0000
44.9300 22.9624 1.0000
44.9400 24.1985 1.0000
44.9500 26.7388 1.0000
44.9600 29.0873 1.0000
44.9700 25.6146 1.0000
44.9800 27.8408 1.0000
44.9900 21.5585 1.0000
45.0000 22.2533 1.0000
45.0100 24.2649 1.0000
45.0200 12.8739 1.0000
45.0300 26.2259 1.0000
45.0400 17.2661 1.0000
45.0500 23.9413 1.0000
45.0600 18.4255 1.0000
45.0700 24.5022 1.0000
45.0800 20.6091 1.0000
45.0900 19.6961 1.0000
45.1000 17.3973 1.0000
45.1100 20.1705 1.0000
45.1200 19.1242 1.0000
45.1300 12.7043 1.0000
45.1400 22.5479 1.0000
45.1500 27.3209 1.0000
45.1600 29.4042 1.0000
45.1700 25.0356 1.0000
45.1800 21.1509 1.0000
45.1900 23.6704 1.0000
45.2000 18.2804 1.0000
45.2100 22.7709 1.0000
45.2200 29.2271 1.0000
45.2300 25.3241 1.0000
45.2400 20.5211 1.0000
45.2500 29.0236 1.0000
45.2600 28.7391 1.0000
45.2700 28.3959 1.0000
45.2800 22.1263 1.0000
45.2900 24.8592 1.0000
45.3000 15.0124 1.0000
45.3100 22.0504 1.0000
45.3200 28.2921 1.0000
45.3300 22.0054 1.0000
45.3400 17.2202 1.0000
45.3500 30.7755 1.0000
45.3600 29.3900 1.0000
45.3700 30.0421 1.0000
45.3800 29.2295 1.0000
45.3900 27.9411 1.0000
45.4000 19.9321 1.0000
45.4100 23.3022 1.0000
45.4200 28.2329 1.0000
45.4300 31.5484 1.0000
45.4400 31.6906 1.0000
45.4500 33.7714 1.0000
45.4600 25.1549 1.0000
45.4700 33.6209 1.0000
45.4800 18.6335 1.0000
45.4900 22.8147 1.0000
45.5000 34.8053 1.0000
45.5100 25.9154 1.0000
45.5200 22.8401 1.0000
45.5300 30.9283 1.0000
45.5400 23.6203 1.0000
45.5500 23.4152 1.0000
45.5600 32.0128 1.0000
45.5700 31.7508 1.0000
45.5800 32.3263 1.0000
45.5900 29.1755 1.0000
45.6000 37.0176 1.0000
45.6100 37.3669 1.0000
45.6200 34.0067 1.0000
45.6300 31.8193 1.0000
45.6400 45.7841 1.0000
45.6500 37.7263 1.0000
45.6600 40.8663 1.0000
45.6700 39.7209 1.0000
45.6800 36.7274 1.0000
45.6900 48.7878 1.0000
45.7000 45.3534 1.0000
45.7100 42.7760 1.0000
45.7200 35.0312 1.0000
45.7300 55.4311 1.0000
45.7400 26.3752 1.0000
45.7500 39.5142 1.0000
45.7600 55.1825 1.0000
45.7700 43.5227 1.0000
45.7800 46.5334 1.0000
45.7900 38.5942 1.0000
45.8000 40.0154 1.0000
45.8100 41.5805 1.0000
45.8200 42.6123 1.0000
45.8300 37.0608 1.0000
45.8400 30.5386 1.0000
45.8500 41.0729 1.0000
45.8600 38.3120 1.0000
45.8700 30.3181 1.0000
45.8800 52.0903 1.0000
45.8900 31.0799 1.0000
45.9000 30.2280 1.0000
45.9100 28.1154 1.0000
45.9200 35.1425 1.0000
45.9300 23.8277 1.0000
45.9400 37.9747 1.0000
45.9500 26.5501 1.0000
45.9600 41.0720 1.0000
45.9700 26.7588 1.0000
45.9800 31.6477 1.0000
45.9900 30.5384 1.0000
46.0000 27.1173 1.0000
46.0100 20.4897 1.0000
46.0200 23.4997 1.0000
46.0300 34.1659 1.0000
46.0400 37.2970 1.0000
46.0500 20.4097 1.0000
46.0600 35.6514 1.0000
46.0700 33.3760 1.0000
46.0800 23.4003 1.0000
46.0900 23.2888 1.0000
46.1000 35.4958 1.0000
46.1100 33.0662 1.0000
46.1200 22.0826 1.0000
46.1300 16.6697 1.0000
46.1400 35.1510 1.0000
46.1500 24.4882 1.0000
46.1600 32.8845 1.0000
46.1700 20.7621 1.0000
46.1800 26.0030 1.0000
46.1900 25.5376 1.0000
46.2000 24.1634 1.0000
46.2100 24.9459 1.0000
46.2200 17.4936 1.0000
46.2300 19.2985 1.0000
46.2400 25.7017 1.0000
46.2500 28.2595 1.0000
46.2600 21.4018 1.0000
46.2700 29.1883 1.0000
46.2800 23.2346 1.0000
46.2900 22.7396 1.0000
46.3000 15.8482 1.0000
46.3100 11.3865 1.0000
46.3200 22.3000 1.0000
46.3300 15.3678 1.0000
46.3400 26.3689 1.0000
46.3500 27.7854 1.0000
46.3600 19.4816 1.0000
46.3700 23.2919 1.0000
46.3800 31.7949 1.0000
46.3900 25.7793 1.0000
46.4000 30.0289 1.0000
46.4100 23.8018 1.0000
46.4200 22.6405 1.0000
46.4300 23.8018 1.0000
46.4400 25.3820 1.0000
46.4500 23.3868 1.0000
46.4600 28.8541 1.0000
46.4700 20.4116 1.0000
46.4800 25.1836 1.0000
46.4900 20.9419 1.0000
46.5000 23.9502 1.0000
46.5100 27.3241 1.0000
46.5200 20.3144 1.0000
46.5300 26.6139 1.0000
46.5400 25.4950 1.0000
46.5500 23.6294 1.0000
46.5600 22.0990 1.0000
46.5700 16.8651 1.0000
46.5800 25.8440 1.0000
46.5900 19.2733 1.0000
46.6000 19.6446 1.0000
46.6100 26.8435 1.0000
46.6200 31.7864 1.0000
46.6300 28.6476 1.0000
46.6400 24.5060 1.0000
46.6500 26.3345 1.0000
46.6600 30.8360 1.0000
46.6700 27.7744 1.0000
46.6800 27.0379 1.0000
46.6900 16.3728 1.0000
46.7000 28.5325 1.0000
46.7100 25.1709 1.0000
46.7200 25.0485 1.0000
46.7300 22.1029 1.0000
46.7400 36.3726 1.0000
46.7500 26.5795 1.0000
46.7600 28.4125 1.0000
46.7700 24.8235 1.0000
46.7800 28.3046 1.0000
46.7900 30.4781 1.0000
46.8000 23.3113 1.0000
46.8100 21.0886 1.0000
46.8200 29.2808 1.0000
46.8300 35.5197 1.0000
46.8400 19.0265 1.0000
46.8500 23.3084 1.0000
46.8600 20.7846 1.0000
46.8700 22.7112 1.0000
46.8800 26.5952 1.0000
46.8900 32.4073 1.0000
46.9000 30.4003 1.0000
46.9100 36.9320 1.0000
46.9200 29.2057 1.0000
46.9300 31.5496 1.0000
46.9400 23.6215 1.0000
46.9500 33.5728 1.0000
46.9600 28.3362 1.0000
46.9700 21.4530 1.0000
46.9800 27.4742 1.0000
46.9900 36.9005 1.0000
47.0000 29.2759 1.0000
47.0100 25.3436 1.0000
47.0200 21.0433 1.0000
47.0300 27.3158 1.0000
47.0400 19.1816 1.0000
47.0500 27.0774 1.0000
47.0600 26.5618 1.0000
47.0700 25.5625 1.0000
47.0800 27.1647 1.0000
47.0900 29.1148 1.0000
47.1000 30.4891 1.0000
47.1100 20.1990 1.0000
47.1200 23.0623 1.0000
47.1300 28.0927 1.0000
47.1400 28.6031 1.0000
47.1500 17.2771 1.0000
47.1600 31.2684 1.0000
47.1700 28.9911 1.0000
47.1800 30.9211 1.0000
47.1900 24.9423 1.0000
47.2000 20.8103 1.0000
47.2100 15.3156 1.0000
47.2200 24.5998 1.0000
47.2300 21.3925 1.0000
47.2400 28.2282 1.0000
47.2500 24.6921 1.0000
47.2600 24.4999 1.0000
47.2700 21.1445 1.0000
47.2800 30.0987 1.0000
47.2900 20.2943 1.0000
47.3000 37.2071 1.0000
47.3100 21.5987 1.0000
47.3200 21.9798 1.0000
47.3300 18.4006 1.0000
47.3400 24.2716 1.0000
47.3500 33.8346 1.0000
47.3600 21.5950 1.0000
47.3700 18.7925 1.0000
47.3800 25.7780 1.0000
47.3900 16.4778 1.0000
47.4000 25.5297 1.0000
47.4100 25.8401 1.0000
47.4200 14.9306 1.0000
47.4300 23.0786 1.0000
47.4400 18.5816 1.0000
47.4500 27.3432 1.0000
47.4600 26.2712 1.0000
47.4700 30.1943 1.0000
47.4800 25.9807 1.0000
47.4900 18.8969 1.0000
47.5000 22.4473 1.0000
47.5100 26.0461 1.0000
47.5200 23.9211 1.0000
47.5300 35.3210 1.0000
47.5400 20.6270 1.0000
47.5500 17.2116 1.0000
47.5600 23.9868 1.0000
47.5700 26.4518 1.0000
47.5800 16.2972 1.0000
47.5900 31.7529 1.0000
47.6000 16.8966 1.0000
47.6100 26.4826 1.0000
47.6200 17.9176 1.0000
47.6300 24.3967 1.0000
47.6400 23.4834 1.0000
47.6500 19.6370 1.0000
47.6600 19.5592 1.0000
47.6700 22.8242 1.0000
47.6800 22.4454 1.0000
47.6900 22.5180 1.0000
47.7000 27.0392 1.0000
47.7100 28.7312 1.0000
47.7200 21.1390 1.0000
47.7300 22.6485 1.0000
47.7400 22.4863 1.0000
47.7500 18.6486 1.0000
47.7600 14.9865 1.0000
47.7700 15.1964 1.0000
47.7800 14.0740 1.0000
47.7900 22.1072 1.0000
47.8000 28.2223 1.0000
47.8100 25.1176 1.0000
47.8200 15.5186 1.0000
47.8300 17.0058 1.0000
47.8400 18.9832 1.0000
47.8500 29.9301 1.0000
47.8600 23.9827 1.0000
47.8700 15.8761 1.0000
47.8800 21.7978 1.0000
47.8900 22.2255 1.0000
47.9000 20.5707 1.0000
47.9100 20.4469 1.0000
47.9200 24.3108 1.0000
47.9300 30.0560 1.0000
47.9400 26.7752 1.0000
47.9500 26.4500 1.0000
47.9600 22.0668 1.0000
47.9700 19.9957 1.0000
47.9800 26.6699 1.0000
47.9900 18.3714 1.0000
48.0000 19.3513 1.0000
48.0100 24.6204 1.0000
48.0200 16.3576 1.0000
48.0300 17.7852 1.0000
48.0400 18.9796 1.0000
48.0500 24.5009 1.0000
48.0600 27.1139 1.0000
48.0700 21.0635 1.0000
48.0800 24.1350 1.0000
48.0900 24.8662 1.0000
48.1000 24.2871 1.0000
48.1100 18.2272 1.0000
48.1200 19.9123 1.0000
48.1300 21.9546 1.0000
48.1400 23.7942 1.0000
48.1500 14.3018 1.0000
48.1600 25.2033 1.0000
48.1700 16.5647 1.0000
48.1800 25.8977 1.0000
48.1900 21.2663 1.0000
48.2000 17.7569 1.0000
48.2100 29.9273 1.0000
48.2200 15.3393 1.0000
48.2300 21.7376 1.0000
48.2400 23.3925 1.0000
48.2500 19.1756 1.0000
48.2600 22.5918 1.0000
48.2700 17.7936 1.0000
48.2800 20.7652 1.0000
48.2900 25.6298 1.0000
48.3000 24.2076 1.0000
48.3100 12.7117 1.0000
48.3200 16.9839 1.0000
48.3300 16.7307 1.0000
48.3400 17.5050 1.0000
48.3500 33.8835 1.0000
48.3600 19.9585 1.0000
48.3700 11.8482 1.0000
48.3800 21.6954 1.0000
48.3900 24.0273 1.0000
48.4000 20.8443 1.0000
48.4100 19.2353 1.0000
48.4200 8.4023 1.0000
48.4300 24.9590 1.0000
48.4400 18.6168 1.0000
48.4500 29.8476 1.0000
48.4600 14.0158 1.0000
48.4700 18.8888 1.0000
48.4800 19.4098 1.0000
48.4900 19.1083 1.0000
48.5000 15.8852 1.0000
48.5100 30.2066 1.0000
48.5200 14.3520 1.0000
48.5300 28.1853 1.0000
48.5400 21.7878 1.0000
48.5500 24.5684 1.0000
48.5600 20.5076 1.0000
48.5700 20.9177 1.0000
48.5800 22.3570 1.0000
48.5900 26.5056 1.0000
48.6000 19.1854 1.0000
48.6100 15.5826 1.0000
48.6200 18.3358 1.0000
48.6300 20.0791 1.0000
48.6400 23.4466 1.0000
48.6500 23.0662 1.0000
48.6600 26.6142 1.0000
48.6700 14.0345 1.0000
48.6800 23.6713 1.0000
48.6900 24.1111 1.0000
48.7000 25.0485 1.0000
48.7100 29.2417 1.0000
48.7200 20.6041 1.0000
48.7300 21.2098 1.0000
48.7400 18.5954 1.0000
48.7500 23.6108 1.0000
48.7600 18.0219 1.0000
48.7700 22.0267 1.0000
48.7800 25.7073 1.0000
48.7900 20.0229 1.0000
48.8000 16.9692 1.0000
48.8100 21.3744 1.0000
48.8200 20.0664 1.0000
48.8300 23.8553 1.0000
48.8400 22.7973 1.0000
48.8500 18.5690 1.0000
48.8600 27.8623 1.0000
48.8700 21.4745 1.0000
48.8800 18.5276 1.0000
48.8900 17.8876 1.0000
48.9000 26.5033 1.0000
48.9100 21.2598 1.0000
48.9200 18.3518 1.0000
48.9300 20.9279 1.0000
48.9400 17.4743 1.0000
48.9500 19.1903 1.0000
48.9600 22.0219 1.0000
48.9700 21.0601 1.0000
48.9800 34.4734 1.0000
48.9900 24.7247 1.0000
49.0000 14.9185 1.0000
49.0100 22.4340 1.0000
49.0200 18.7431 1.0000
49.0300 21.9317 1.0000
49.0400 17.4576 1.0000
49.0500 21.8191 1.0000
49.0600 20.0437 1.0000
49.0700 22.4244 1.0000
49.0800 19.9842 1.0000
49.0900 27.2249 1.0000
49.1000 24.8458 1.0000
49.1100 24.2861 1.0000
49.1200 21.4868 1.0000
49.1300 14.8329 1.0000
49.1400 23.8635 1.0000
49.1500 16.3659 1.0000
49.1600 27.2210 1.0000
49.1700 23.0192 1.0000
49.1800 21.2643 1.0000
49.1900 19.1579 1.0000
49.2000 15.1998 1.0000
49.2100 25.3013 1.0000
49.2200 26.1078 1.0000
49.2300 16.4555 1.0000
49.2400 27.8584 1.0000
49.2500 21.1581 1.0000
49.2600 24.5057 1.0000
49.2700 26.9776 1.0000
49.2800 19.8979 1.0000
49.2900 30.9851 1.0000
49.3000 19.2901 1.0000
49.3100 24.4131 1.0000
49.3200 16.5099 1.0000
49.3300 23.1320 1.0000
49.3400 18.8631 1.0000
49.3500 29.7942 1.0000
49.3600 14.3329 1.0000
49.3700 15.8269 1.0000
49.3800 22.1519 1.0000
49.3900 28.7266 1.0000
49.4000 35.1972 1.0000
49.4100 34.9979 1.0000
49.4200 26.7689 1.0000
49.4300 21.5379 1.0000
49.4400 28.2538 1.0000
49.4500 19.7161 1.0000
49.4600 22.0978 1.0000
49.4700 20.2896 1.0000
49.4800 28.1708 1.0000
49.4900 23.7073 1.0000
49.5000 23.6460 1.0000
49.5100 26.8169 1.0000
49.5200 21.0214 1.0000
49.5300 33.5636 1.0000
49.5400 20.2152 1.0000
49.5500 21.6481 1.0000
49.5600 23.7756 1.0000
49.5700 16.7386 1.0000
49.5800 20.6112 1.0000
49.5900 21.0951 1.0000
49.6000 22.0523 1.0000
49.6100 25.9992 1.0000
49.6200 21.5643 1.0000
49.6300 22.5809 1.0000
49.6400 22.2396 1.0000
49.6500 25.8950 1.0000
49.6600 31.9709 1.0000
49.6700 21.5678 1.0000
49.6800 24.6146 1.0000
49.6900 33.1909 1.0000
49.7000 27.1670 1.0000
49.7100 20.5594 1.0000
49.7200 23.4950 1.0000
49.7300 21.1419 1.0000
49.7400 28.3660 1.0000
49.7500 23.1007 1.0000
49.7600 25.9767 1.0000
49.7700 30.2425 1.0000
49.7800 24.2702 1.0000
49.7900 21.2654 1.0000
49.8000 20.3877 1.0000
49.8100 28.0795 1.0000
49.8200 18.5738 1.0000
49.8300 24.3410 1.0000
49.8400 25.9076 1.0000
49.8500 26.0850 1.0000
49.8600 15.2779 1.0000
49.8700 19.1516 1.0000
49.8800 25.3477 1.0000
49.8900 21.2155 1.0000
49.9000 28.1432 1.0000
49.9100 17.1278 1.0000
49.9200 28.3390 1.0000
49.9300 23.7183 1.0000
49.9400 20.3823 1.0000
49.9500 14.8051 1.0000
49.9600 16.9537 1.0000
49.9700 23.3037 1.0000
49.9800 24.2302 1.0000
49.9900 18.9976 1.0000
50.0000 18.1705 1.0000
50.0100 16.8517 1.0000
50.0200 17.0807 1.0000
50.0300 25.5467 1.0000
50.0400 27.4080 1.0000
50.0500 18.7418 1.0000
50.0600 21.4209 1.0000
50.0700 26.2046 1.0000
50.0800 22.8924 1.0000
50.0900 17.0213 1.0000
50.1000 16.7321 1.0000
50.1100 22.8760 1.0000
50.1200 16.8684 1.0000
50.1300 28.1722 1.0000
50.1400 18.6046 1.0000
50.1500 22.8978 1.0000
50.1600 22.6797 1.0000
50.1700 25.5372 1.0000
50.1800 22.7628 1.0000
50.1900 24.1171 1.0000
50.2000 26.0443 1.0000
50.2100 20.6579 1.0000
50.2200 22.9998 1.0000
50.2300 17.1938 1.0000
50.2400 25.1258 1.0000
50.2500 29.0638 1.0000
50.2600 28.3347 1.0000
50.2700 18.6326 1.0000
50.2800 29.0331 1.0000
50.2900 30.9610 1.0000
50.3000 12.4855 1.0000
50.3100 15.7140 1.0000
50.3200 13.1946 1.0000
50.3300 17.3906 1.0000
50.3400 17.5830 1.0000
50.3500 21.1290 1.0000
50.3600 19.5325 1.0000
50.3700 24.1975 1.0000
50.3800 13.2570 1.0000
50.3900 19.3427 1.0000
50.4000 19.0022 1.0000
50.4100 26.8308 1.0000
50.4200 28.4058 1.0000
50.4300 21.1859 1.0000
50.4400 22.4193 1.0000
50.4500 22.5611 1.0000
50.4600 17.2297 1.0000
50.4700 24.8780 1.0000
50.4800 20.4393 1.0000
50.4900 20.0960 1.0000
50.5000 35.0202 1.0000
50.5100 21.0065 1.0000
50.5200 23.3930 1.0000
50.5300 14.7069 1.0000
50.5400 20.0355 1.0000
50.5500 25.7572 1.0000
50.5600 26.3687 1.0000
50.5700 30.8202 1.0000
50.5800 10.9268 1.0000
50.5900 15.5354 1.0000
50.6000 29.3886 1.0000
50.6100 20.1768 1.0000
50.6200 32.0099 1.0000
50.6300 21.2416 1.0000
50.6400 24.1277 1.0000
50.6500 15.8863 1.0000
50.6600 32.7002 1.0000
50.6700 20.7780 1.0000
50.6800 29.5056 1.0000
50.6900 18.6679 1.0000
50.7000 22.6670 1.0000
50.7100 25.1356 1.0000
50.7200 27.8317 1.0000
50.7300 18.3792 1.0000
50.7400 22.5906 1.0000
50.7500 23.8566 1.0000
50.7600 26.0716 1.0000
50.7700 29.2597 1.0000
50.7800 16.9180 1.0000
50.7900 24.2231 1.0000
50.8000 27.0748 1.0000
50.8100 29.4590 1.0000
50.8200 25.8697 1.0000
50.8300 20.8234 1.0000
50.8400 21.2372 1.0000
50.8500 31.8529 1.0000
50.8600 18.2090 1.0000
50.8700 30.4439 1.0000
50.8800 29.2696 1.0000
50.8900 25.0558 1.0000
50.9000 24.5794 1.0000
50.9100 23.0930 1.0000
50.9200 24.0002 1.0000
50.9300 28.7604 1.0000
50.9400 27.4770 1.0000
50.9500 19.1361 1.0000
50.9600 16.4968 1.0000
50.9700 22.8168 1.0000
50.9800 20.3041 1.0000
50.9900 29.5188 1.0000
51.0000 18.0670 1.0000
51.0100 22.3916 1.0000
51.0200 22.3301 1.0000
51.0300 22.6098 1.0000
51.0400 19.8206 1.0000
51.0500 19.5997 1.0000
51.0600 37.1440 1.0000
51.0700 23.8402 1.0000
51.0800 23.2082 1.0000
51.0900 42.2132 1.0000
51.1000 29.3451 1.0000
51.1100 30.4646 1.0000
51.1200 37.2152 1.0000
51.1300 32.7372 1.0000
51.1400 30.3177 1.0000
51.1500 21.3375 1.0000
51.1600 35.6695 1.0000
51.1700 37.5485 1.0000
51.1800 39.0115 1.0000
51.1900 37.0656 1.0000
51.2000 35.0924 1.0000
51.2100 31.2266 1.0000
51.2200 34.1554 1.0000
51.2300 38.1133 1.0000
51.2400 31.9586 1.0000
51.2500 32.9182 1.0000
51.2600 38.7546 1.0000
51.2700 36.1413 1.0000
51.2800 39.9186 1.0000
51.2900 26.7052 1.0000
51.3000 28.7720 1.0000
51.3100 31.0468 1.0000
51.3200 34.5819 1.0000
51.3300 30.8610 1.0000
51.3400 30.2703 1.0000
51.3500 40.0478 1.0000
51.3600 42.9826 1.0000
51.3700 33.4579 1.0000
51.3800 37.8574 1.0000
51.3900 24.9883 1.0000
51.4000 24.5343 1.0000
51.4100 32.2076 1.0000
51.4200 41.9944 1.0000
51.4300 20.3493 1.0000
51.4400 28.9892 1.0000
51.4500 28.4215 1.0000
51.4600 32.9207 1.0000
51.4700 28.7859 1.0000
51.4800 29.1788 1.0000
51.4900 26.0148 1.0000
51.5000 35.1042 1.0000
51.5100 33.9507 1.0000
51.5200 40.8604 1.0000
51.5300 19.6698 1.0000
51.5400 33.1087 1.0000
51.5500 29.7960 1.0000
51.5600 38.5428 1.0000
51.5700 28.0859 1.0000
51.5800 34.7001 1.0000
51.5900 40.1361 1.0000
51.6000 21.2875 1.0000
51.6100 32.8361 1.0000
51.6200 27.4070 1.0000
51.6300 32.7413 1.0000
51.6400 37.9413 1.0000
51.6500 36.2135 1.0000
51.6600 30.7788 1.0000
51.6700 39.8418 1.0000
51.6800 36.8138 1.0000
51.6900 34.9828 1.0000
51.7000 20.1257 1.0000
51.7100 22.8384 1.0000
51.7200 43.1089 1.0000
51.7300 29.8425 1.0000
51.7400 27.8769 1.0000
51.7500 35.6568 1.0000
51.7600 35.3705 1.0000
51.7700 28.5566 1.0000
51.7800 24.2395 1.0000
51.7900 26.7971 1.0000
51.8000 22.2791 1.0000
51.8100 33.9582 1.0000
51.8200 20.7554 1.0000
51.8300 30.9647 1.0000
51.8400 38.8279 1.0000
51.8500 28.4933 1.0000
51.8600 32.7439 1.0000
51.8700 42.7160 1.0000
51.8800 28.7616 1.0000
51.8900 30.5232 1.0000
51.9000 33.2255 1.0000
51.9100 29.7558 1.0000
51.9200 22.9395 1.0000
51.9300 28.6069 1.0000
51.9400 18.9124 1.0000
51.9500 18.3161 1.0000
51.9600 26.2978 1.0000
51.9700 40.1301 1.0000
51.9800 29.1030 1.0000
51.9900 24.5000 1.0000
52.0000 24.0132 1.0000
52.0100 26.1658 1.0000
52.0200 36.6464 1.0000
52.0300 22.8227 1.0000
52.0400 23.5293 1.0000
52.0500 23.7779 1.0000
52.0600 29.5772 1.0000
52.0700 20.2390 1.0000
52.0800 22.9862 1.0000
52.0900 24.7522 1.0000
52.1000 24.2591 1.0000
52.1100 19.3013 1.0000
52.1200 25.8150 1.0000
52.1300 17.7799 1.0000
52.1400 26.1176 1.0000
52.1500 24.6398 1.0000
52.1600 30.0376 1.0000
52.1700 19.5181 1.0000
52.1800 24.9167 1.0000
52.1900 30.0967 1.0000
52.2000 19.6112 1.0000
52.2100 19.3897 1.0000
52.2200 25.6646 1.0000
52.2300 26.3749 1.0000
52.2400 21.2825 1.0000
52.2500 17.4195 1.0000
52.2600 35.8509 1.0000
52.2700 26.6878 1.0000
52.2800 16.6758 1.0000
52.2900 15.4590 1.0000
52.3000 19.8581 1.0000
52.3100 22.4163 1.0000
52.3200 17.7952 1.0000
52.3300 17.6114 1.0000
52.3400 26.2665 1.0000
52.3500 14.9452 1.0000
52.3600 27.0858 1.0000
52.3700 30.7549 1.0000
52.3800 23.5473 1.0000
52.3900 18.7501 1.0000
52.4000 33.3312 1.0000
52.4100 15.3376 1.0000
52.4200 28.1072 1.0000
52.4300 24.5104 1.0000
52.4400 27.0087 1.0000
52.4500 19.2917 1.0000
52.4600 24.3600 1.0000
52.4700 25.8915 1.0000
52.4800 22.2427 1.0000
52.4900 26.7312 1.0000
52.5000 19.8504 1.0000
52.5100 17.5487 1.0000
52.5200 18.4178 1.0000
52.5300 23.8758 1.0000
52.5400 22.9236 1.0000
52.5500 23.7439 1.0000
52.5600 22.7947 1.0000
52.5700 31.1099 1.0000
52.5800 25.4438 1.0000
52.5900 21.4587 1.0000
52.6000 21.1337 1.0000
52.6100 33.3356 1.0000
52.6200 23.2204 1.0000
52.6300 24.4436 1.0000
52.6400 21.7572 1.0000
52.6500 25.3365 1.0000
52.6600 29.1001 1.0000
52.6700 27.3043 1.0000
52.6800 24.0135 1.0000
52.6900 20.0408 1.0000
52.7000 26.2503 1.0000
52.7100 20.7028 1.0000
52.7200 23.3246 1.0000
52.7300 16.5825 1.0000
52.7400 28.0890 1.0000
52.7500 28.4271 1.0000
52.7600 21.7844 1.0000
52.7700 23.6242 1.0000
52.7800 16.8607 1.0000
52.7900 20.0713 1.0000
52.8000 27.9563 1.0000
52.8100 20.3597 1.0000
52.8200 17.9704 1.0000
52.8300 22.2418 1.0000
52.8400 30.3913 1.0000
52.8500 22.1491 1.0000
52.8600 19.1782 1.0000
52.8700 22.2755 1.0000
52.8800 23.5064 1.0000
52.8900 14.2549 1.0000
52.9000 20.3311 1.0000
52.9100 25.2173 1.0000
52.9200 31.8319 1.0000
52.9300 17.0604 1.0000
52.9400 24.0417 1.0000
52.9500 22.2972 1.0000
52.9600 21.8512 1.0000
52.9700 15.2999 1.0000
52.9800 28.5455 1.0000
52.9900 23.5999 1.0000
53.0000 15.2394 1.0000
53.0100 19.4169 1.0000
53.0200 17.4355 1.0000
53.0300 17.6939 1.0000
53.0400 23.5540 1.0000
53.0500 14.7187 1.0000
53.0600 19.3983 1.0000
53.0700 20.4493 1.0000
53.0800 23.6388 1.0000
53.0900 16.0670 1.0000
53.1000 19.8212 1.0000
53.1100 24.5727 1.0000
53.1200 25.0479 1.0000
53.1300 17.9021 1.0000
53.1400 23.2231 1.0000
53.1500 21.2344 1.0000
53.1600 28.3810 1.0000
53.1700 24.0222 1.0000
53.1800 16.6505 1.0000
53.1900 23.0716 1.0000
53.2000 25.2890 1.0000
53.2100 17.0784 1.0000
53.2200 20.6710 1.0000
53.2300 19.7720 1.0000
53.2400 21.7115 1.0000
53.2500 22.9915 1.0000
53.2600 13.9836 1.0000
53.2700 24.2878 1.0000
53.2800 17.0984 1.0000
53.2900 17.2037 1.0000
53.3000 26.9719 1.0000
53.3100 23.2328 1.0000
53.3200 24.2360 1.0000
53.3300 12.0290 1.0000
53.3400 21.9512 1.0000
53.3500 18.4642 1.0000
53.3600 20.2142 1.0000
53.3700 23.0840 1.0000
53.3800 22.6444 1.0000
53.3900 21.3994 1.0000
53.4000 23.8911 1.0000
53.4100 26.0950 1.0000
53.4200 20.1230 1.0000
53.4300 14.4837 1.0000
53.4400 21.0119 1.0000
53.4500 17.2858 1.0000
53.4600 23.0342 1.0000
53.4700 19.9114 1.0000
53.4800 20.3358 1.0000
53.4900 25.8207 1.0000
53.5000 16.5627 1.0000
53.5100 25.2223 1.0000
53.5200 25.0471 1.0000
53.5300 19.5076 1.0000
53.5400 17.3134 1.0000
53.5500 16.4840 1.0000
53.5600 28.7660 1.0000
53.5700 20.3710 1.0000
53.5800 20.0240 1.0000
53.5900 21.0113 1.0000
53.6000 9.5490 1.0000
53.6100 17.7514 1.0000
53.6200 20.7222 1.0000
53.6300 22.1719 1.0000
53.6400 18.8417 1.0000
53.6500 16.1346 1.0000
53.6600 21.8945 1.0000
53.6700 19.9333 1.0000
53.6800 20.7689 1.0000
53.6900 29.5071 1.0000
53.7000 23.5805 1.0000
53.7100 20.8884 1.0000
53.7200 16.2788 1.0000
53.7300 17.5995 1.0000
53.7400 14.5259 1.0000
53.7500 15.0954 1.0000
53.7600 15.6605 1.0000
53.7700 22.5832 1.0000
53.7800 17.8710 1.0000
53.7900 23.5567 1.0000
53.8000 16.8377 1.0000
53.8100 19.6856 1.0000
53.8200 21.4533 1.0000
53.8300 15.6381 1.0000
53.8400 27.1288 1.0000
53.8500 23.7384 1.0000
53.8600 19.6607 1.0000
53.8700 19.5118 1.0000
53.8800 18.9300 1.0000
53.8900 26.9384 1.0000
53.9000 28.1585 1.0000
53.9100 27.3628 1.0000
53.9200 18.8156 1.0000
53.9300 16.4040 1.0000
53.9400 22.6761 1.0000
53.9500 26.0165 1.0000
53.9600 22.1010 1.0000
53.9700 24.5605 1.0000
53.9800 29.5107 1.0000
53.9900 21.2777 1.0000
54.0000 19.9389 1.0000
54.0100 20.7990 1.0000
54.0200 22.3954 1.0000
54.0300 19.8263 1.0000
54.0400 19.7224 1.0000
54.0500 13.5486 1.0000
54.0600 15.4248 1.0000
54.0700 29.7765 1.0000
54.0800 30.5670 1.0000
54.0900 23.1464 1.0000
54.1000 31.9077 1.0000
54.1100 19.8338 1.0000
54.1200 21.9101 1.0000
54.1300 19.1743 1.0000
54.1400 17.2150 1.0000
54.1500 18.5213 1.0000
54.1600 13.6654 1.0000
54.1700 17.0223 1.0000
54.1800 27.4152 1.0000
54.1900 19.1308 1.0000
54.2000 29.8294 1.0000
54.2100 14.0425 1.0000
54.2200 35.4193 1.0000
54.2300 17.9926 1.0000
54.2400 19.9924 1.0000
54.2500 27.4953 1.0000
54.2600 24.1622 1.0000
54.2700 21.2992 1.0000
54.2800 21.3629 1.0000
54.2900 13.7092 1.0000
54.3000 25.9158 1.0000
54.3100 20.1330 1.0000
54.3200 21.2123 1.0000
54.3300 22.2677 1.0000
54.3400 20.6580 1.0000
54.3500 23.3811 1.0000
54.3600 15.7397 1.0000
54.3700 20.1216 1.0000
54.3800 23.4926 1.0000
54.3900 25.8261 1.0000
54.4000 19.5175 1.0000
54.4100 21.7406 1.0000
54.4200 17.1836 1.0000
54.4300 21.2741 1.0000
54.4400 28.1464 1.0000
54.4500 25.9978 1.0000
54.4600 12.9144 1.0000
54.4700 18.8808 1.0000
54.4800 16.1265 1.0000
54.4900 17.5009 1.0000
54.5000 11.4810 1.0000
54.5100 15.7434 1.0000
54.5200 20.9102 1.0000
54.5300 12.6544 1.0000
54.5400 30.1343 1.0000
54.5500 20.5077 1.0000
54.5600 21.9683 1.0000
54.5700 15.7706 1.0000
54.5800 26.3803 1.0000
54.5900 20.5554 1.0000
54.6000 21.4589 1.0000
54.6100 20.7531 1.0000
54.6200 20.6433 1.0000
54.6300 20.3409 1.0000
54.6400 17.6053 1.0000
54.6500 21.8049 1.0000
54.6600 20.6077 1.0000
54.6700 18.9185 1.0000
54.6800 19.6252 1.0000
54.6900 17.4798 1.0000
54.7000 23.8654 1.0000
54.7100 15.5468 1.0000
54.7200 20.3487 1.0000
54.7300 18.6915 1.0000
54.7400 22.4039 1.0000
54.7500 20.5193 1.0000
54.7600 17.1712 1.0000
54.7700 23.3547 1.0000
54.7800 29.3327 1.0000
54.7900 19.4475 1.0000
54.8000 16.0830 1.0000
54.8100 22.1459 1.0000
54.8200 23.3909 1.0000
54.8300 21.9410 1.0000
54.8400 30.0850 1.0000
54.8500 21.4631 1.0000
54.8600 22.3972 1.0000
54.8700 22.0672 1.0000
54.8800 21.5651 1.0000
54.8900 17.7305 1.0000
54.9000 15.9579 1.0000
54.9100 28.2971 1.0000
54.9200 22.0618 1.0000
54.9300 16.2809 1.0000
54.9400 15.6718 1.0000
54.9500 20.5024 1.0000
54.9600 20.5711 1.0000
54.9700 21.8503 1.0000
54.9800 26.8939 1.0000
54.9900 20.8775 1.0000
55.0000 17.8667 1.0000
55.0100 33.6103 1.0000
55.0200 19.2780 1.0000
55.0300 21.3963 1.0000
55.0400 20.6124 1.0000
55.0500 17.6003 1.0000
55.0600 24.4367 1.0000
55.0700 25.5043 1.0000
55.0800 22.4629 1.0000
55.0900 24.5538 1.0000
55.1000 21.4891 1.0000
55.1100 22.6755 1.0000
55.1200 15.9384 1.0000
55.1300 27.3499 1.0000
55.1400 17.0206 1.0000
55.1500 23.9925 1.0000
55.1600 15.5085 1.0000
55.1700 17.8675 1.0000
55.1800 27.2076 1.0000
55.1900 14.7367 1.0000
55.2000 20.2517 1.0000
55.2100 15.9992 1.0000
55.2200 19.3821 1.0000
55.2300 15.1136 1.0000
55.2400 14.8740 1.0000
55.2500 19.6159 1.0000
55.2600 21.5464 1.0000
55.2700 11.3358 1.0000
55.2800 22.0969 1.0000
55.2900 15.3247 1.0000
55.3000 28.6889 1.0000
55.3100 24.5805 1.0000
55.3200 23.3728 1.0000
55.3300 24.2403 1.0000
55.3400 15.2698 1.0000
55.3500 21.6828 1.0000
55.3600 23.1227 1.0000
55.3700 19.5148 1.0000
55.3800 20.5418 1.0000
55.3900 21.3624 1.0000
55.4000 36.9140 1.0000
55.4100 21.9853 1.0000
55.4200 21.4149 1.0000
55.4300 18.2847 1.0000
55.4400 29.1275 1.0000
55.4500 23.4004 1.0000
55.4600 18.4960 1.0000
55.4700 15.4838 1.0000
55.4800 17.6632 1.0000
55.4900 22.6743 1.0000
55.5000 19.7273 1.0000
55.5100 24.9654 1.0000
55.5200 30.0738 1.0000
55.5300 22.2718 1.0000
55.5400 15.2921 1.0000
55.5500 30.9113 1.0000
55.5600 18.7133 1.0000
55.5700 23.9149 1.0000
55.5800 23.9329 1.0000
55.5900 15.4317 1.0000
55.6000 23.8960 1.0000
55.6100 19.5358 1.0000
55.6200 20.7747 1.0000
55.6300 21.0695 1.0000
55.6400 24.9482 1.0000
55.6500 17.1509 1.0000
55.6600 19.5830 1.0000
55.6700 15.6118 1.0000
55.6800 20.8798 1.0000
55.6900 22.2731 1.0000
55.7000 22.0437 1.0000
55.7100 25.5667 1.0000
55.7200 25.2968 1.0000
55.7300 14.9323 1.0000
55.7400 18.9536 1.0000
55.7500 22.2712 1.0000
55.7600 14.8265 1.0000
55.7700 14.2339 1.0000
55.7800 18.4165 1.0000
55.7900 23.4949 1.0000
55.8000 18.0618 1.0000
55.8100 19.5575 1.0000
55.8200 19.3986 1.0000
55.8300 27.6549 1.0000
55.8400 32.3309 1.0000
55.8500 21.3217 1.0000
55.8600 25.8294 1.0000
55.8700 36.4545 1.0000
55.8800 22.8115 1.0000
55.8900 21.9587 1.0000
55.9000 18.8832 1.0000
55.9100 21.0219 1.0000
55.9200 24.5433 1.0000
55.9300 20.2222 1.0000
55.9400 19.4994 1.0000
55.9500 19.5319 1.0000
55.9600 16.5230 1.0000
55.9700 22.3167 1.0000
55.9800 18.1048 1.0000
55.9900 27.6460 1.0000
56.0000 17.3842 1.0000
56.0100 24.5452 1.0000
56.0200 20.6163 1.0000
56.0300 26.0265 1.0000
56.0400 29.8473 1.0000
56.0500 24.1667 1.0000
56.0600 28.8497 1.0000
56.0700 25.9127 1.0000
56.0800 29.6415 1.0000
56.0900 25.6476 1.0000
56.1000 28.2584 1.0000
56.1100 19.8216 1.0000
56.1200 27.2390 1.0000
56.1300 17.8017 1.0000
56.1400 23.9311 1.0000
56.1500 29.1698 1.0000
56.1600 25.6955 1.0000
56.1700 20.1741 1.0000
56.1800 23.9945 1.0000
56.1900 20.5640 1.0000
56.2000 23.2391 1.0000
56.2100 29.5517 1.0000
56.2200 23.9714 1.0000
56.2300 34.6702 1.0000
56.2400 32.2710 1.0000
56.2500 30.9008 1.0000
56.2600 32.9617 1.0000
56.2700 23.5883 1.0000
56.2800 34.5658 1.0000
56.2900 26.8637 1.0000
56.3000 21.1207 1.0000
56.3100 40.1876 1.0000
56.3200 24.1386 1.0000
56.3300 25.6179 1.0000
56.3400 23.9074 1.0000
56.3500 37.4748 1.0000
56.3600 29.2900 1.0000
56.3700 25.9117 1.0000
56.3800 33.6720 1.0000
56.3900 27.1677 1.0000
56.4000 37.1955 1.0000
56.4100 29.9865 1.0000
56.4200 28.0581 1.0000
56.4300 31.1738 1.0000
56.4400 29.1349 1.0000
56.4500 32.1446 1.0000
56.4600 24.1817 1.0000
56.4700 39.4427 1.0000
56.4800 32.4680 1.0000
56.4900 29.3352 1.0000
56.5000 28.8445 1.0000
56.5100 29.2526 1.0000
56.5200 22.4358 1.0000
56.5300 35.6910 1.0000
56.5400 31.0315 1.0000
56.5500 37.7250 1.0000
56.5600 35.6647 1.0000
56.5700 39.6509 1.0000
56.5800 24.3190 1.0000
56.5900 29.7323 1.0000
56.6000 24.8903 1.0000
56.6100 32.2464 1.0000
56.6200 34.7783 1.0000
56.6300 27.9291 1.0000
56.6400 32.3965 1.0000
56.6500 33.1961 1.0000
56.6600 14.3885 1.0000
56.6700 30.3441 1.0000
56.6800 35.4806 1.0000
56.6900 24.5368 1.0000
56.7000 31.2708 1.0000
56.7100 19.5322 1.0000
56.7200 22.4496 1.0000
56.7300 30.7150 1.0000
56.7400 32.3529 1.0000
56.7500 41.5174 1.0000
56.7600 35.9938 1.0000
56.7700 33.0221 1.0000
56.7800 27.2883 1.0000
56.7900 32.0884 1.0000
56.8000 29.2011 1.0000
56.8100 38.9643 1.0000
56.8200 33.3836 1.0000
56.8300 40.1637 1.0000
56.8400 34.1514 1.0000
56.8500 40.2812 1.0000
56.8600 41.4449 1.0000
56.8700 33.5733 1.0000
56.8800 28.9787 1.0000
56.8900 30.9530 1.0000
56.9000 42.4645 1.0000
56.9100 46.8694 1.0000
56.9200 47.3815 1.0000
56.9300 42.1322 1.0000
56.9400 37.5151 1.0000
56.9500 58.3971 1.0000
56.9600 38.8579 1.0000
56.9700 44.7724 1.0000
56.9800 39.6268 1.0000
56.9900 41.1712 1.0000
57.0000 46.1082 1.0000
57.0100 39.3967 1.0000
57.0200 37.5193 1.0000
57.0300 50.4232 1.0000
57.0400 49.0245 1.0000
57.0500 44.3284 1.0000
57.0600 41.6664 1.0000
57.0700 40.4787 1.0000
57.0800 35.9385 1.0000
57.0900 39.0845 1.0000
57.1000 51.4432 1.0000
57.1100 41.7971 1.0000
57.1200 35.8293 1.0000
57.1300 49.2207 1.0000
57.1400 37.7741 1.0000
57.1500 32.7666 1.0000
57.1600 39.7926 1.0000
57.1700 35.8042 1.0000
57.1800 27.1311 1.0000
57.1900 30.6320 1.0000
57.2000 38.1449 1.0000
57.2100 36.2432 1.0000
57.2200 24.8855 1.0000
57.2300 39.9406 1.0000
57.2400 35.1576 1.0000
57.2500 45.6399 1.0000
57.2600 29.1833 1.0000
57.2700 23.0159 1.0000
57.2800 26.9702 1.0000
57.2900 31.3830 1.0000
57.3000 13.6960 1.0000
57.3100 27.8610 1.0000
57.3200 31.3019 1.0000
57.3300 23.9320 1.0000
57.3400 34.4108 1.0000
57.3500 18.0483 1.0000
57.3600 25.4143 1.0000
57.3700 29.2219 1.0000
57.3800 19.0006 1.0000
57.3900 24.1644 1.0000
57.4000 20.8911 1.0000
57.4100 23.5435 1.0000
57.4200 20.1366 1.0000
57.4300 25.4639 1.0000
57.4400 23.2730 1.0000
57.4500 28.3056 1.0000
57.4600 27.6786 1.0000
57.4700 23.4739 1.0000
57.4800 23.6049 1.0000
57.4900 25.1381 1.0000
57.5000 15.1845 1.0000
57.5100 18.5354 1.0000
57.5200 21.6721 1.0000
57.5300 21.4787 1.0000
57.5400 14.1394 1.0000
57.5500 20.7088 1.0000
57.5600 20.0568 1.0000
57.5700 30.3356 1.0000
57.5800 18.3171 1.0000
57.5900 20.5135 1.0000
57.6000 20.0254 1.0000
57.6100 25.1536 1.0000
57.6200 21.2453 1.0000
57.6300 21.3319 1.0000
57.6400 22.2534 1.0000
57.6500 22.9043 1.0000
57.6600 25.4131 1.0000
57.6700 25.5390 1.0000
57.6800 28.5666 1.0000
57.6900 23.4346 1.0000
57.7000 19.4692 1.0000
57.7100 27.0259 1.0000
57.7200 22.5579 1.0000
57.7300 17.5988 1.0000
57.7400 16.9212 1.0000
57.7500 12.8987 1.0000
57.7600 22.5809 1.0000
57.7700 12.4450 1.0000
57.7800 26.7151 1.0000
57.7900 18.1937 1.0000
57.8000 28.9279 1.0000
57.8100 17.9945 1.0000
57.8200 12.0223 1.0000
57.8300 23.0517 1.0000
57.8400 18.7018 1.0000
57.8500 23.7667 1.0000
57.8600 15.6911 1.0000
57.8700 20.0111 1.0000
57.8800 22.4628 1.0000
57.8900 16.3586 1.0000
57.9000 20.8205 1.0000
57.9100 14.1131 1.0000
57.9200 20.7393 1.0000
57.9300 16.7591 1.0000
57.9400 21.3604 1.0000
57.9500 17.2614 1.0000
57.9600 23.8818 1.0000
57.9700 16.7078 1.0000
57.9800 22.3604 1.0000
57.9900 26.0504 1.0000
58.0000 17.9805 1.0000
58.0100 21.1005 1.0000
58.0200 23.7608 1.0000
58.0300 19.6530 1.0000
58.0400 25.0903 1.0000
58.0500 19.1186 1.0000
58.0600 15.6815 1.0000
58.0700 20.3078 1.0000
58.0800 16.6205 1.0000
58.0900 32.1897 1.0000
58.1000 23.8059 1.0000
58.1100 28.3296 1.0000
58.1200 21.0051 1.0000
58.1300 17.8715 1.0000
58.1400 22.6201 1.0000
58.1500 16.9946 1.0000
58.1600 13.8905 1.0000
58.1700 26.8987 1.0000
58.1800 25.7655 1.0000
58.1900 17.7925 1.0000
58.2000 17.8552 1.0000
58.2100 26.8649 1.0000
58.2200 16.6853 1.0000
58.2300 16.7223 1.0000
58.2400 20.7337 1.0000
58.2500 16.6734 1.0000
58.2600 26.3679 1.0000
58.2700 31.3133 1.0000
58.2800 12.4326 1.0000
58.2900 22.0493 1.0000
58.3000 10.9374 1.0000
58.3100 18.2253 1.0000
58.3200 24.1267 1.0000
58.3300 23.5854 1.0000
58.3400 14.9692 1.0000
58.3500 23.4319 1.0000
58.3600 25.4125 1.0000
58.3700 24.6311 1.0000
58.3800 21.8152 1.0000
58.3900 28.6154 1.0000
58.4000 17.9007 1.0000
58.4100 18.6392 1.0000
58.4200 21.9169 1.0000
58.4300 24.9745 1.0000
58.4400 15.9165 1.0000
58.4500 21.6566 1.0000
58.4600 23.7627 1.0000
58.4700 24.9391 1.0000
58.4800 20.5141 1.0000
58.4900 22.4291 1.0000
58.5000 22.4983 1.0000
58.5100 17.2500 1.0000
58.5200 24.7254 1.0000
58.5300 24.3551 1.0000
58.5400 26.1131 1.0000
58.5500 25.7004 1.0000
58.5600 19.4287 1.0000
58.5700 24.1358 1.0000
58.5800 22.6901 1.0000
58.5900 18.5766 1.0000
58.6000 22.2526 1.0000
58.6100 19.4831 1.0000
58.6200 30.5685 1.0000
58.6300 29.5502 1.0000
58.6400 32.0833 1.0000
58.6500 30.9235 1.0000
58.6600 13.8234 1.0000
58.6700 26.8814 1.0000
58.6800 19.2047 1.0000
58.6900 15.0388 1.0000
58.7000 13.3325 1.0000
58.7100 23.5921 1.0000
58.7200 23.0658 1.0000
58.7300 17.8136 1.0000
58.7400 19.7209 1.0000
58.7500 17.7028 1.0000
58.7600 19.5350 1.0000
58.7700 18.7916 1.0000
58.7800 15.5491 1.0000
58.7900 20.4202 1.0000
58.8000 11.9878 1.0000
58.8100 24.7149 1.0000
58.8200 20.8732 1.0000
58.8300 14.4746 1.0000
58.8400 21.6485 1.0000
58.8500 22.4173 1.0000
58.8600 21.0277 1.0000
58.8700 15.4657 1.0000
58.8800 25.0343 1.0000
58.8900 15.8810 1.0000
58.9000 22.4815 1.0000
58.9100 21.7607 1.0000
58.9200 21.0156 1.0000
58.9300 17.0359 1.0000
58.9400 23.1961 1.0000
58.9500 23.7607 1.0000
58.9600 19.1025 1.0000
58.9700 17.5008 1.0000
58.9800 26.5595 1.0000
58.9900 11.1869 1.0000
59.0000 23.2156 1.0000
59.0100 14.8906 1.0000
59.0200 17.2416 1.0000
59.0300 17.5346 1.0000
59.0400 18.3428 1.0000
59.0500 14.9278 1.0000
59.0600 12.8820 1.0000
59.0700 21.1704 1.0000
59.0800 17.4339 1.0000
59.0900 12.6356 1.0000
59.1000 16.0101 1.0000
59.1100 22.3902 1.0000
59.1200 26.2902 1.0000
59.1300 21.4526 1.0000
59.1400 29.2211 1.0000
59.1500 23.5516 1.0000
59.1600 19.5167 1.0000
59.1700 13.1494 1.0000
59.1800 22.6130 1.0000
59.1900 26.5087 1.0000
59.2000 20.9750 1.0000
59.2100 16.4033 1.0000
59.2200 21.3817 1.0000
59.2300 17.9694 1.0000
59.2400 18.1534 1.0000
59.2500 20.4374 1.0000
59.2600 26.3078 1.0000
59.2700 24.7929 1.0000
59.2800 25.6336 1.0000
59.2900 19.9277 1.0000
59.3000 22.2128 1.0000
59.3100 26.8685 1.0000
59.3200 17.1780 1.0000
59.3300 21.3883 1.0000
59.3400 18.5185 1.0000
59.3500 16.7546 1.0000
59.3600 17.4399 1.0000
59.3700 18.5362 1.0000
59.3800 23.8452 1.0000
59.3900 25.0700 1.0000
59.4000 23.2371 1.0000
59.4100 24.3484 1.0000
59.4200 23.5393 1.0000
59.4300 19.8829 1.0000
59.4400 18.4311 1.0000
59.4500 17.3968 1.0000
59.4600 17.2431 1.0000
59.4700 22.3483 1.0000
59.4800 25.4207 1.0000
59.4900 26.6017 1.0000
59.5000 20.2627 1.0000
59.5100 28.5893 1.0000
59.5200 27.7908 1.0000
59.5300 14.2816 1.0000
59.5400 26.5093 1.0000
59.5500 18.8556 1.0000
59.5600 19.9610 1.0000
59.5700 26.5307 1.0000
59.5800 19.5560 1.0000
59.5900 22.9118 1.0000
59.6000 19.7095 1.0000
59.6100 30.9488 1.0000
59.6200 17.8884 1.0000
59.6300 22.4980 1.0000
59.6400 21.4113 1.0000
59.6500 25.8012 1.0000
59.6600 20.2635 1.0000
59.6700 21.0457 1.0000
59.6800 28.2445 1.0000
59.6900 20.2250 1.0000
59.7000 30.9420 1.0000
59.7100 17.2383 1.0000
59.7200 18.2474 1.0000
59.7300 25.4633 1.0000
59.7400 15.5983 1.0000
59.7500 15.2324 1.0000
59.7600 18.0183 1.0000
59.7700 20.6242 1.0000
59.7800 16.8296 1.0000
59.7900 24.9117 1.0000
59.8000 21.1224 1.0000
59.8100 28.1907 1.0000
59.8200 20.4990 1.0000
59.8300 14.8846 1.0000
59.8400 17.5378 1.0000
59.8500 15.7400 1.0000
59.8600 15.6525 1.0000
59.8700 16.8644 1.0000
59.8800 19.8092 1.0000
59.8900 15.4392 1.0000
59.9000 20.1820 1.0000
59.9100 22.5805 1.0000
59.9200 24.9196 1.0000
59.9300 29.1411 1.0000
59.9400 15.0625 1.0000
59.9500 10.6655 1.0000
59.9600 18.9287 1.0000
59.9700 15.9983 1.0000
59.9800 24.4321 1.0000
59.9900 18.9911 1.0000
60.0000 15.1657 1.0000
60.0100 20.2372 1.0000
60.0200 14.8743 1.0000
60.0300 31.1824 1.0000
60.0400 19.6214 1.0000
60.0500 20.0162 1.0000
60.0600 14.5641 1.0000
60.0700 13.5622 1.0000
60.0800 17.5207 1.0000
60.0900 26.4325 1.0000
60.1000 18.0560 1.0000
60.1100 18.8505 1.0000
60.1200 13.0653 1.0000
60.1300 11.0314 1.0000
60.1400 23.3247 1.0000
60.1500 18.0091 1.0000
60.1600 14.6507 1.0000
60.1700 16.2578 1.0000
60.1800 18.7580 1.0000
60.1900 15.9049 1.0000
60.2000 22.9638 1.0000
60.2100 16.4701 1.0000
60.2200 13.2051 1.0000
60.2300 20.4859 1.0000
60.2400 16.3733 1.0000
60.2500 18.7821 1.0000
60.2600 13.8652 1.0000
60.2700 22.0938 1.0000
60.2800 20.3193 1.0000
60.2900 18.7834 1.0000
60.3000 22.4490 1.0000
60.3100 17.9584 1.0000
60.3200 16.4075 1.0000
60.3300 24.0490 1.0000
60.3400 16.8159 1.0000
60.3500 21.4095 1.0000
60.3600 15.5485 1.0000
60.3700 17.8675 1.0000
60.3800 22.7631 1.0000
60.3900 22.6415 1.0000
60.4000 23.5736 1.0000
60.4100 15.3547 1.0000
60.4200 21.4146 1.0000
60.4300 19.0390 1.0000
60.4400 16.0143 1.0000
60.4500 16.2492 1.0000
60.4600 28.6657 1.0000
60.4700 17.6879 1.0000
60.4800 18.9324 1.0000
60.4900 18.7961 1.0000
60.5000 17.0708 1.0000
60.5100 16.8398 1.0000
60.5200 19.2228 1.0000
60.5300 16.0406 1.0000
60.5400 19.2351 1.0000
60.5500 22.5188 1.0000
60.5600 21.6303 1.0000
60.5700 22.4164 1.0000
60.5800 19.8799 1.0000
60.5900 23.0326 1.0000
60.6000 21.1661 1.0000
60.6100 16.3032 1.0000
60.6200 12.9677 1.0000
60.6300 22.5759 1.0000
60.6400 11.9375 1.0000
60.6500 21.5880 1.0000
60.6600 23.2335 1.0000
60.6700 21.7922 1.0000
60.6800 23.1990 1.0000
60.6900 14.2322 1.0000
60.7000 17.8123 1.0000
60.7100 22.9638 1.0000
60.7200 17.8459 1.0000
60.7300 25.0967 1.0000
60.7400 19.7512 1.0000
60.7500 26.4787 1.0000
60.7600 16.6826 1.0000
60.7700 19.5077 1.0000
60.7800 20.8661 1.0000
60.7900 14.4821 1.0000
60.8000 17.0133 1.0000
60.8100 19.3679 1.0000
60.8200 12.4852 1.0000
60.8300 16.9316 1.0000
60.8400 14.2710 1.0000
60.8500 16.7032 1.0000
60.8600 18.8083 1.0000
60.8700 24.9761 1.0000
60.8800 24.4147 1.0000
60.8900 19.1350 1.0000
60.9000 15.6709 1.0000
60.9100 19.0432 1.0000
60.9200 13.4692 1.0000
60.9300 24.2350 1.0000
60.9400 22.4783 1.0000
60.9500 27.0034 1.0000
60.9600 23.8947 1.0000
60.9700 18.9923 1.0000
60.9800 16.9150 1.0000
60.9900 27.8470 1.0000
61.0000 26.4686 1.0000
61.0100 19.4110 1.0000
61.0200 31.1120 1.0000
61.0300 19.2820 1.0000
61.0400 19.3895 1.0000
61.0500 13.2993 1.0000
61.0600 20.3520 1.0000
61.0700 26.0823 1.0000
61.0800 21.7746 1.0000
61.0900 16.1163 1.0000
61.1000 14.7767 1.0000
61.1100 18.5494 1.0000
61.1200 14.5634 1.0000
61.1300 15.5086 1.0000
61.1400 14.7654 1.0000
61.1500 19.2038 1.0000
61.1600 18.9697 1.0000
61.1700 19.1332 1.0000
61.1800 29.9163 1.0000
61.1900 23.1708 1.0000
61.2000 18.3713 1.0000
61.2100 24.7724 1.0000
61.2200 12.8983 1.0000
61.2300 22.5409 1.0000
61.2400 19.5801 1.0000
61.2500 12.7162 1.0000
61.2600 11.6709 1.0000
61.2700 27.3521 1.0000
61.2800 20.4338 1.0000
61.2900 25.1284 1.0000
61.3000 20.8343 1.0000
61.3100 21.8978 1.0000
61.3200 20.3728 1.0000
61.3300 16.8409 1.0000
61.3400 24.4985 1.0000
61.3500 18.9506 1.0000
61.3600 20.4742 1.0000
61.3700 20.4574 1.0000
61.3800 20.3270 1.0000
61.3900 21.2569 1.0000
61.4000 15.6304 1.0000
61.4100 12.8894 1.0000
61.4200 21.3773 1.0000
61.4300 29.5958 1.0000
61.4400 35.0064 1.0000
61.4500 16.0162 1.0000
61.4600 25.0403 1.0000
61.4700 22.0698 1.0000
61.4800 18.2595 1.0000
61.4900 20.4484 1.0000
61.5000 14.4277 1.0000
61.5100 15.2188 1.0000
61.5200 29.5554 1.0000
61.5300 14.2263 1.0000
61.5400 24.5424 1.0000
61.5500 29.6984 1.0000
61.5600 21.8438 1.0000
61.5700 21.9075 1.0000
61.5800 21.4135 1.0000
61.5900 23.6090 1.0000
61.6000 22.8083 1.0000
61.6100 14.2103 1.0000
61.6200 23.2857 1.0000
61.6300 16.0518 1.0000
61.6400 11.9935 1.0000
61.6500 18.1452 1.0000
61.6600 20.7472 1.0000
61.6700 18.2316 1.0000
61.6800 23.8959 1.0000
61.6900 19.3114 1.0000
61.7000 13.4238 1.0000
61.7100 16.0997 1.0000
61.7200 21.6264 1.0000
61.7300 20.2473 1.0000
61.7400 17.8052 1.0000
61.7500 10.5141 1.0000
61.7600 21.9206 1.0000
61.7700 23.3295 1.0000
61.7800 23.7885 1.0000
61.7900 13.6488 1.0000
61.8000 25.5683 1.0000
61.8100 17.8568 1.0000
61.8200 18.7094 1.0000
61.8300 31.6335 1.0000
61.8400 18.1099 1.0000
61.8500 16.6285 1.0000
61.8600 18.0235 1.0000
61.8700 15.3361 1.0000
61.8800 18.2856 1.0000
61.8900 22.3264 1.0000
61.9000 23.3226 1.0000
61.9100 19.0689 1.0000
61.9200 22.6383 1.0000
61.9300 15.6395 1.0000
61.9400 25.2217 1.0000
61.9500 26.4800 1.0000
61.9600 16.7253 1.0000
61.9700 21.6593 1.0000
61.9800 27.2858 1.0000
61.9900 22.8470 1.0000
62.0000 22.8393 1.0000
62.0100 18.4233 1.0000
62.0200 25.5598 1.0000
62.0300 22.1300 1.0000
62.0400 16.5963 1.0000
62.0500 15.7562 1.0000
62.0600 14.2362 1.0000
62.0700 24.5630 1.0000
62.0800 14.1063 1.0000
62.0900 13.8798 1.0000
62.1000 19.0602 1.0000
62.1100 21.0043 1.0000
62.1200 12.9060 1.0000
62.1300 17.1177 1.0000
62.1400 24.1448 1.0000
62.1500 20.6601 1.0000
62.1600 17.8905 1.0000
62.1700 23.7232 1.0000
62.1800 21.4923 1.0000
62.1900 15.5238 1.0000
62.2000 22.0636 1.0000
62.2100 19.4960 1.0000
62.2200 20.1867 1.0000
62.2300 24.4366 1.0000
62.2400 16.9915 1.0000
62.2500 23.7053 1.0000
62.2600 16.5274 1.0000
62.2700 11.8815 1.0000
62.2800 16.6489 1.0000
62.2900 29.8779 1.0000
62.3000 20.9502 1.0000
62.3100 20.0230 1.0000
62.3200 15.6177 1.0000
62.3300 15.4070 1.0000
62.3400 22.4131 1.0000
62.3500 17.4879 1.0000
62.3600 20.9541 1.0000
62.3700 18.8497 1.0000
62.3800 21.4618 1.0000
62.3900 20.3668 1.0000
62.4000 26.3741 1.0000
62.4100 17.0135 1.0000
62.4200 17.6552 1.0000
62.4300 13.0239 1.0000
62.4400 24.0231 1.0000
62.4500 27.6936 1.0000
62.4600 24.8086 1.0000
62.4700 15.5887 1.0000
62.4800 16.2177 1.0000
62.4900 28.2339 1.0000
62.5000 15.1266 1.0000
62.5100 22.9903 1.0000
62.5200 16.3711 1.0000
62.5300 21.2844 1.0000
62.5400 23.9686 1.0000
62.5500 22.0724 1.0000
62.5600 10.4158 1.0000
62.5700 18.5964 1.0000
62.5800 26.7214 1.0000
62.5900 18.5432 1.0000
62.6000 14.9447 1.0000
62.6100 16.9505 1.0000
62.6200 20.1031 1.0000
62.6300 24.2640 1.0000
62.6400 18.9463 1.0000
62.6500 19.2474 1.0000
62.6600 13.2929 1.0000
62.6700 20.8130 1.0000
62.6800 20.1183 1.0000
62.6900 26.4189 1.0000
62.7000 19.4147 1.0000
62.7100 17.9950 1.0000
62.7200 17.2682 1.0000
62.7300 21.6353 1.0000
62.7400 19.0609 1.0000
62.7500 24.1536 1.0000
62.7600 23.4776 1.0000
62.7700 17.1083 1.0000
62.7800 22.6622 1.0000
62.7900 10.4198 1.0000
62.8000 24.0740 1.0000
62.8100 17.0435 1.0000
62.8200 19.3157 1.0000
62.8300 19.6531 1.0000
62.8400 24.2342 1.0000
62.8500 12.8316 1.0000
62.8600 22.4734 1.0000
62.8700 25.5995 1.0000
62.8800 22.7340 1.0000
62.8900 26.4014 1.0000
62.9000 27.5429 1.0000
62.9100 19.9950 1.0000
62.9200 24.9328 1.0000
62.9300 15.5160 1.0000
62.9400 27.3784 1.0000
62.9500 25.8428 1.0000
62.9600 15.2437 1.0000
62.9700 24.4668 1.0000
62.9800 19.3125 1.0000
62.9900 25.8059 1.0000
63.0000 22.9172 1.0000
63.0100 19.5915 1.0000
63.0200 18.3260 1.0000
63.0300 19.4906 1.0000
63.0400 19.9550 1.0000
63.0500 24.6159 1.0000
63.0600 23.5973 1.0000
63.0700 19.3478 1.0000
63.0800 30.3048 1.0000
63.0900 24.2230 1.0000
63.1000 22.2585 1.0000
63.1100 19.3742 1.0000
63.1200 25.6609 1.0000
63.1300 22.6496 1.0000
63.1400 26.2034 1.0000
63.1500 21.3756 1.0000
63.1600 16.1635 1.0000
63.1700 12.8826 1.0000
63.1800 17.0450 1.0000
63.1900 18.8959 1.0000
63.2000 22.7927 1.0000
63.2100 19.0801 1.0000
63.2200 16.7793 1.0000
63.2300 24.1571 1.0000
63.2400 22.6527 1.0000
63.2500 17.1573 1.0000
63.2600 19.2108 1.0000
63.2700 22.4683 1.0000
63.2800 24.0642 1.0000
63.2900 20.3054 1.0000
63.3000 19.7663 1.0000
63.3100 21.3277 1.0000
63.3200 25.0119 1.0000
63.3300 16.5882 1.0000
63.3400 20.1407 1.0000
63.3500 17.3148 1.0000
63.3600 16.6148 1.0000
63.3700 20.2488 1.0000
63.3800 20.2794 1.0000
63.3900 23.4483 1.0000
63.4000 21.5878 1.0000
63.4100 22.5656 1.0000
63.4200 20.9806 1.0000
63.4300 23.2978 1.0000
63.4400 15.3364 1.0000
63.4500 16.9503 1.0000
63.4600 19.3700 1.0000
63.4700 14.6663 1.0000
63.4800 18.8018 1.0000
63.4900 25.7511 1.0000
63.5000 18.6901 1.0000
63.5100 21.9556 1.0000
63.5200 19.4383 1.0000
63.5300 22.9092 1.0000
63.5400 31.0428 1.0000
63.5500 18.1719 1.0000
63.5600 28.3224 1.0000
63.5700 18.5659 1.0000
63.5800 18.1554 1.0000
63.5900 16.0938 1.0000
63.6000 22.8367 1.0000
63.6100 22.3231 1.0000
63.6200 19.5818 1.0000
63.6300 20.6408 1.0000
63.6400 20.2354 1.0000
63.6500 18.6802 1.0000
63.6600 21.1562 1.0000
63.6700 17.1121 1.0000
63.6800 19.6540 1.0000
63.6900 23.0834 1.0000
63.7000 12.9581 1.0000
63.7100 20.5696 1.0000
63.7200 23.6025 1.0000
63.7300 10.2854 1.0000
63.7400 19.1958 1.0000
63.7500 20.3713 1.0000
63.7600 20.6985 1.0000
63.7700 22.9464 1.0000
63.7800 23.4772 1.0000
63.7900 17.1967 1.0000
63.8000 21.9568 1.0000
63.8100 18.4709 1.0000
63.8200 20.2870 1.0000
63.8300 24.6974 1.0000
63.8400 15.6760 1.0000
63.8500 22.0803 1.0000
63.8600 20.1572 1.0000
63.8700 19.6775 1.0000
63.8800 30.8561 1.0000
63.8900 21.5112 1.0000
63.9000 23.9067 1.0000
63.9100 24.2100 1.0000
63.9200 26.4081 1.0000
63.9300 21.5051 1.0000
63.9400 12.4188 1.0000
63.9500 23.1866 1.0000
63.9600 16.1769 1.0000
63.9700 21.9532 1.0000
63.9800 20.6472 1.0000
63.9900 18.7776 1.0000
64.0000 14.5507 1.0000
64.0100 26.2131 1.0000
64.0200 24.1920 1.0000
64.0300 16.9272 1.0000
64.0400 25.3826 1.0000
64.0500 21.3129 1.0000
64.0600 12.0987 1.0000
64.0700 20.4193 1.0000
64.0800 23.9374 1.0000
64.0900 15.3090 1.0000
64.1000 23.5521 1.0000
64.1100 25.1235 1.0000
64.1200 21.8826 1.0000
64.1300 17.4447 1.0000
64.1400 22.2632 1.0000
64.1500 17.6900 1.0000
64.1600 12.4401 1.0000
64.1700 14.1561 1.0000
64.1800 13.2959 1.0000
64.1900 17.7335 1.0000
64.2000 18.8859 1.0000
64.2100 20.4427 1.0000
64.2200 22.9513 1.0000
64.2300 11.1471 1.0000
64.2400 19.7009 1.0000
64.2500 23.0136 1.0000
64.2600 24.8266 1.0000
64.2700 16.6155 1.0000
64.2800 23.5808 1.0000
64.2900 22.4143 1.0000
64.3000 14.8717 1.0000
64.3100 14.9462 1.0000
64.3200 24.4176 1.0000
64.3300 23.3713 1.0000
64.3400 18.3783 1.0000
64.3500 24.9588 1.0000
64.3600 11.7494 1.0000
64.3700 24.8926 1.0000
64.3800 14.7613 1.0000
64.3900 26.4870 1.0000
64.4000 23.1405 1.0000
64.4100 20.9687 1.0000
64.4200 18.2448 1.0000
64.4300 19.9290 1.0000
64.4400 19.9537 1.0000
64.4500 20.5984 1.0000
64.4600 23.1004 1.0000
64.4700 20.8879 1.0000
64.4800 20.6837 1.0000
64.4900 18.6398 1.0000
64.5000 13.9944 1.0000
64.5100 17.8198 1.0000
64.5200 21.3437 1.0000
64.5300 13.7436 1.0000
64.5400 20.1054 1.0000
64.5500 19.6122 1.0000
64.5600 18.7850 1.0000
64.5700 20.4689 1.0000
64.5800 18.9934 1.0000
64.5900 23.3213 1.0000
64.6000 19.9904 1.0000
64.6100 20.8709 1.0000
64.6200 20.0626 1.0000
64.6300 19.0298 1.0000
64.6400 17.8776 1.0000
64.6500 17.7572 1.0000
64.6600 22.9105 1.0000
64.6700 14.1497 1.0000
64.6800 17.2215 1.0000
64.6900 26.8377 1.0000
64.7000 23.9649 1.0000
64.7100 20.0896 1.0000
64.7200 24.0641 1.0000
64.7300 20.5927 1.0000
64.7400 19.9602 1.0000
64.7500 19.2327 1.0000
64.7600 20.1490 1.0000
64.7700 15.9933 1.0000
64.7800 25.2369 1.0000
64.7900 25.7973 1.0000
64.8000 24.3795 1.0000
64.8100 22.1681 1.0000
64.8200 21.2124 1.0000
64.8300 17.0051 1.0000
64.8400 22.6882 1.0000
64.8500 25.0518 1.0000
64.8600 14.0670 1.0000
64.8700 23.1584 1.0000
64.8800 19.5905 1.0000
64.8900 17.0549 1.0000
64.9000 25.0133 1.0000
64.9100 18.7883 1.0000
64.9200 28.4421 1.0000
64.9300 21.1280 1.0000
64.9400 15.3306 1.0000
64.9500 21.5871 1.0000
64.9600 19.4081 1.0000
64.9700 16.7020 1.0000
64.9800 19.0706 1.0000
64.9900 27.7390 1.0000
65.0000 18.9427 1.0000
65.0100 19.9162 1.0000
65.0200 17.9621 1.0000
65.0300 14.7351 1.0000
65.0400 9.7842 1.0000
65.0500 16.0244 1.0000
65.0600 17.0049 1.0000
65.0700 13.3256 1.0000
65.0800 18.3822 1.0000
65.0900 14.7611 1.0000
65.1000 18.5254 1.0000
65.1100 17.4837 1.0000
65.1200 19.3478 1.0000
65.1300 25.4895 1.0000
65.1400 21.7149 1.0000
65.1500 18.2388 1.0000
65.1600 11.4441 1.0000
65.1700 18.4451 1.0000
65.1800 14.8817 1.0000
65.1900 21.5716 1.0000
65.2000 24.6821 1.0000
65.2100 16.7874 1.0000
65.2200 20.9349 1.0000
65.2300 30.1948 1.0000
65.2400 20.4255 1.0000
65.2500 20.4645 1.0000
65.2600 25.0135 1.0000
65.2700 20.9216 1.0000
65.2800 21.4199 1.0000
65.2900 20.9013 1.0000
65.3000 31.4891 1.0000
65.3100 14.4979 1.0000
65.3200 18.4998 1.0000
65.3300 16.0209 1.0000
65.3400 25.1793 1.0000
65.3500 21.6629 1.0000
65.3600 17.8147 1.0000
65.3700 20.2908 1.0000
65.3800 16.7832 1.0000
65.3900 21.4582 1.0000
65.4000 21.4901 1.0000
65.4100 16.7608 1.0000
65.4200 26.8901 1.0000
65.4300 27.0516 1.0000
65.4400 18.9970 1.0000
65.4500 20.1496 1.0000
65.4600 18.1176 1.0000
65.4700 20.4658 1.0000
65.4800 17.4573 1.0000
65.4900 19.4926 1.0000
65.5000 21.3480 1.0000
65.5100 18.8433 1.0000
65.5200 16.2061 1.0000
65.5300 14.4057 1.0000
65.5400 16.1938 1.0000
65.5500 18.0130 1.0000
65.5600 21.4641 1.0000
65.5700 22.3471 1.0000
65.5800 16.3308 1.0000
65.5900 18.1740 1.0000
65.6000 13.6930 1.0000
65.6100 19.2553 1.0000
65.6200 23.0525 1.0000
65.6300 21.7575 1.0000
65.6400 18.4036 1.0000
65.6500 18.4012 1.0000
65.6600 26.6079 1.0000
65.6700 21.4460 1.0000
65.6800 20.2926 1.0000
65.6900 15.5783 1.0000
65.7000 19.3067 1.0000
65.7100 12.8404 1.0000
65.7200 22.5295 1.0000
65.7300 22.2000 1.0000
65.7400 22.2050 1.0000
65.7500 21.4592 1.0000
65.7600 16.3093 1.0000
65.7700 19.6446 1.0000
65.7800 11.0315 1.0000
65.7900 11.1938 1.0000
65.8000 22.5969 1.0000
65.8100 25.3894 1.0000
65.8200 16.2212 1.0000
65.8300 18.5196 1.0000
65.8400 15.5767 1.0000
65.8500 18.5632 1.0000
65.8600 22.4356 1.0000
65.8700 24.1069 1.0000
65.8800 16.9440 1.0000
65.8900 24.6315 1.0000
65.9000 17.8812 1.0000
65.9100 19.4266 1.0000
65.9200 18.8170 1.0000
65.9300 16.6886 1.0000
65.9400 27.6765 1.0000
65.9500 19.2255 1.0000
65.9600 14.0495 1.0000
65.9700 21.9086 1.0000
65.9800 25.1117 1.0000
65.9900 16.9333 1.0000
66.0000 23.6268 1.0000
66.0100 26.1486 1.0000
66.0200 22.4755 1.0000
66.0300 13.6644 1.0000
66.0400 20.7678 1.0000
66.0500 24.1063 1.0000
66.0600 19.8568 1.0000
66.0700 14.0964 1.0000
66.0800 16.9898 1.0000
66.0900 14.3938 1.0000
66.1000 17.2847 1.0000
66.1100 20.4268 1.0000
66.1200 21.7974 1.0000
66.1300 16.8907 1.0000
66.1400 17.8768 1.0000
66.1500 20.0513 1.0000
66.1600 20.5414 1.0000
66.1700 24.3418 1.0000
66.1800 21.4015 1.0000
66.1900 22.0223 1.0000
66.2000 22.1307 1.0000
66.2100 21.9712 1.0000
66.2200 19.9173 1.0000
66.2300 23.9202 1.0000
66.2400 17.7086 1.0000
66.2500 25.2482 1.0000
66.2600 23.8168 1.0000
66.2700 17.0583 1.0000
66.2800 26.1057 1.0000
66.2900 27.8952 1.0000
66.3000 12.8831 1.0000
66.3100 24.3635 1.0000
66.3200 27.7896 1.0000
66.3300 21.5456 1.0000
66.3400 22.7545 1.0000
66.3500 19.3044 1.0000
66.3600 28.0519 1.0000
66.3700 13.3019 1.0000
66.3800 29.2019 1.0000
66.3900 23.1299 1.0000
66.4000 21.9193 1.0000
66.4100 18.2431 1.0000
66.4200 14.7911 1.0000
66.4300 21.9905 1.0000
66.4400 27.5113 1.0000
66.4500 19.4655 1.0000
66.4600 24.6412 1.0000
66.4700 21.4526 1.0000
66.4800 19.1291 1.0000
66.4900 27.0758 1.0000
66.5000 14.5471 1.0000
66.5100 18.1278 1.0000
66.5200 19.1997 1.0000
66.5300 18.5088 1.0000
66.5400 25.6974 1.0000
66.5500 15.4408 1.0000
66.5600 15.8729 1.0000
66.5700 13.3142 1.0000
66.5800 27.0842 1.0000
66.5900 15.1686 1.0000
66.6000 16.1281 1.0000
66.6100 13.3657 1.0000
66.6200 17.2152 1.0000
66.6300 19.3719 1.0000
66.6400 12.8406 1.0000
66.6500 17.0425 1.0000
66.6600 11.5097 1.0000
66.6700 27.4354 1.0000
66.6800 16.1246 1.0000
66.6900 23.7057 1.0000
66.7000 28.4444 1.0000
66.7100 18.5025 1.0000
66.7200 22.9258 1.0000
66.7300 20.8088 1.0000
66.7400 25.5139 1.0000
66.7500 24.8333 1.0000
66.7600 20.1633 1.0000
66.7700 20.6775 1.0000
66.7800 24.2361 1.0000
66.7900 22.8745 1.0000
66.8000 27.5428 1.0000
66.8100 17.1164 1.0000
66.8200 13.0291 1.0000
66.8300 15.1679 1.0000
66.8400 18.5136 1.0000
66.8500 21.6091 1.0000
66.8600 19.4555 1.0000
66.8700 21.6988 1.0000
66.8800 25.1872 1.0000
66.8900 19.0192 1.0000
66.9000 21.7333 1.0000
66.9100 19.0894 1.0000
66.9200 30.8977 1.0000
66.9300 29.0454 1.0000
66.9400 28.7915 1.0000
66.9500 19.8304 1.0000
66.9600 24.1562 1.0000
66.9700 35.9642 1.0000
66.9800 21.2026 1.0000
66.9900 17.9303 1.0000
67.0000 32.7572 1.0000
67.0100 23.8263 1.0000
67.0200 17.4885 1.0000
67.0300 32.7513 1.0000
67.0400 23.7551 1.0000
67.0500 21.9256 1.0000
67.0600 22.5055 1.0000
67.0700 24.6065 1.0000
67.0800 16.0579 1.0000
67.0900 20.8747 1.0000
67.1000 25.2662 1.0000
67.1100 27.3961 1.0000
67.1200 22.6871 1.0000
67.1300 21.6205 1.0000
67.1400 25.3265 1.0000
67.1500 28.4594 1.0000
67.1600 16.1812 1.0000
67.1700 29.1240 1.0000
67.1800 11.6015 1.0000
67.1900 22.7532 1.0000
67.2000 13.9196 1.0000
67.2100 17.5341 1.0000
67.2200 19.3340 1.0000
67.2300 21.9981 1.0000
67.2400 22.0121 1.0000
67.2500 23.8559 1.0000
67.2600 26.2366 1.0000
67.2700 18.8413 1.0000
67.2800 19.8654 1.0000
67.2900 24.4696 1.0000
67.3000 25.3789 1.0000
67.3100 12.8601 1.0000
67.3200 17.5490 1.0000
67.3300 23.7852 1.0000
67.3400 21.4707 1.0000
67.3500 29.1671 1.0000
67.3600 15.1635 1.0000
67.3700 23.1938 1.0000
67.3800 18.7570 1.0000
67.3900 21.4874 1.0000
67.4000 29.0333 1.0000
67.4100 23.5867 1.0000
67.4200 16.2820 1.0000
67.4300 28.3638 1.0000
67.4400 18.2791 1.0000
67.4500 20.0752 1.0000
67.4600 16.8887 1.0000
67.4700 22.4379 1.0000
67.4800 20.6197 1.0000
67.4900 23.6068 1.0000
67.5000 24.7145 1.0000
67.5100 18.2518 1.0000
67.5200 26.7247 1.0000
67.5300 32.8656 1.0000
67.5400 23.8429 1.0000
67.5500 26.9804 1.0000
67.5600 15.1347 1.0000
67.5700 13.0149 1.0000
67.5800 15.1717 1.0000
67.5900 15.1583 1.0000
67.6000 21.5906 1.0000
67.6100 19.5891 1.0000
67.6200 29.1947 1.0000
67.6300 10.1278 1.0000
67.6400 20.1250 1.0000
67.6500 19.8770 1.0000
67.6600 15.9453 1.0000
67.6700 17.6063 1.0000
67.6800 19.2152 1.0000
67.6900 24.6540 1.0000
67.7000 28.3514 1.0000
67.7100 22.3140 1.0000
67.7200 15.4810 1.0000
67.7300 22.0372 1.0000
67.7400 23.3119 1.0000
67.7500 28.8300 1.0000
67.7600 22.1278 1.0000
67.7700 25.3947 1.0000
67.7800 15.8271 1.0000
67.7900 15.2010 1.0000
67.8000 21.7448 1.0000
67.8100 25.4911 1.0000
67.8200 18.9941 1.0000
67.8300 12.2421 1.0000
67.8400 23.9116 1.0000
67.8500 18.4709 1.0000
67.8600 19.2677 1.0000
67.8700 30.3659 1.0000
67.8800 16.8192 1.0000
67.8900 20.4662 1.0000
67.9000 21.8008 1.0000
67.9100 17.5023 1.0000
67.9200 19.1632 1.0000
67.9300 13.9527 1.0000
67.9400 14.6367 1.0000
67.9500 22.7736 1.0000
67.9600 23.9548 1.0000
67.9700 17.1868 1.0000
67.9800 29.3744 1.0000
67.9900 18.0096 1.0000
68.0000 15.0178 1.0000
68.0100 12.4459 1.0000
68.0200 25.7479 1.0000
68.0300 18.1478 1.0000
68.0400 18.6974 1.0000
68.0500 19.8636 1.0000
68.0600 17.2765 1.0000
68.0700 20.8990 1.0000
68.0800 17.3696 1.0000
68.0900 12.2474 1.0000
68.1000 12.3323 1.0000
68.1100 11.1699 1.0000
68.1200 16.1049 1.0000
68.1300 21.0904 1.0000
68.1400 21.0761 1.0000
68.1500 22.0556 1.0000
68.1600 25.2151 1.0000
68.1700 14.0297 1.0000
68.1800 20.5861 1.0000
68.1900 27.5019 1.0000
68.2000 13.9892 1.0000
68.2100 19.1927 1.0000
68.2200 24.6249 1.0000
68.2300 12.7239 1.0000
68.2400 22.2617 1.0000
68.2500 22.6844 1.0000
68.2600 12.3186 1.0000
68.2700 19.6287 1.0000
68.2800 17.6142 1.0000
68.2900 20.0274 1.0000
68.3000 18.3225 1.0000
68.3100 25.1658 1.0000
68.3200 19.1238 1.0000
68.3300 22.4442 1.0000
68.3400 13.7964 1.0000
68.3500 19.1482 1.0000
68.3600 18.4187 1.0000
68.3700 15.5408 1.0000
68.3800 15.1780 1.0000
68.3900 13.6397 1.0000
68.4000 14.4878 1.0000
68.4100 11.2765 1.0000
68.4200 18.8771 1.0000
68.4300 18.5656 1.0000
68.4400 12.4433 1.0000
68.4500 23.2968 1.0000
68.4600 10.7716 1.0000
68.4700 18.3179 1.0000
68.4800 11.9323 1.0000
68.4900 19.2027 1.0000
68.5000 20.1669 1.0000
68.5100 17.2219 1.0000
68.5200 11.7253 1.0000
68.5300 14.6617 1.0000
68.5400 13.1761 1.0000
68.5500 19.1754 1.0000
68.5600 12.2375 1.0000
68.5700 17.3641 1.0000
68.5800 18.9675 1.0000
68.5900 13.2518 1.0000
68.6000 22.6194 1.0000
68.6100 15.6670 1.0000
68.6200 16.3964 1.0000
68.6300 14.1537 1.0000
68.6400 17.7326 1.0000
68.6500 20.1898 1.0000
68.6600 16.4827 1.0000
68.6700 22.3626 1.0000
68.6800 16.9249 1.0000
68.6900 23.0982 1.0000
68.7000 28.9480 1.0000
68.7100 12.2805 1.0000
68.7200 13.2120 1.0000
68.7300 22.6220 1.0000
68.7400 17.0742 1.0000
68.7500 18.4399 1.0000
68.7600 20.9857 1.0000
68.7700 22.4266 1.0000
68.7800 18.1431 1.0000
68.7900 17.3669 1.0000
68.8000 20.4250 1.0000
68.8100 18.1749 1.0000
68.8200 17.5188 1.0000
68.8300 14.0207 1.0000
68.8400 16.9406 1.0000
68.8500 20.1113 1.0000
68.8600 12.8482 1.0000
68.8700 14.5869 1.0000
68.8800 22.6982 1.0000
68.8900 25.0814 1.0000
68.9000 13.2014 1.0000
68.9100 19.9413 1.0000
68.9200 17.0248 1.0000
68.9300 17.4892 1.0000
68.9400 20.9893 1.0000
68.9500 20.0103 1.0000
68.9600 19.9644 1.0000
68.9700 10.9039 1.0000
68.9800 16.3472 1.0000
68.9900 14.7032 1.0000
69.0000 17.5217 1.0000
69.0100 20.8345 1.0000
69.0200 17.3327 1.0000
69.0300 17.9484 1.0000
69.0400 17.3516 1.0000
69.0500 21.0557 1.0000
69.0600 17.3282 1.0000
69.0700 16.7679 1.0000
69.0800 23.9836 1.0000
69.0900 16.3753 1.0000
69.1000 23.2310 1.0000
69.1100 11.4334 1.0000
69.1200 13.2718 1.0000
69.1300 10.4711 1.0000
69.1400 23.8195 1.0000
69.1500 16.3872 1.0000
69.1600 16.3061 1.0000
69.1700 17.2254 1.0000
69.1800 12.1177 1.0000
69.1900 18.9895 1.0000
69.2000 15.5606 1.0000
69.2100 21.8693 1.0000
69.2200 13.9150 1.0000
69.2300 19.1001 1.0000
69.2400 16.9481 1.0000
69.2500 13.8762 1.0000
69.2600 19.3391 1.0000
69.2700 19.9809 1.0000
69.2800 18.2048 1.0000
69.2900 18.1138 1.0000
69.3000 19.5195 1.0000
69.3100 18.8230 1.0000
69.3200 13.6714 1.0000
69.3300 13.8392 1.0000
69.3400 13.9820 1.0000
69.3500 12.7253 1.0000
69.3600 20.1091 1.0000
69.3700 21.6604 1.0000
69.3800 14.9971 1.0000
69.3900 18.5133 1.0000
69.4000 21.2983 1.0000
69.4100 22.7773 1.0000
69.4200 21.3794 1.0000
69.4300 28.8516 1.0000
69.4400 13.9287 1.0000
69.4500 22.7910 1.0000
69.4600 21.1754 1.0000
69.4700 13.5199 1.0000
69.4800 19.5066 1.0000
69.4900 11.8500 1.0000
69.5000 18.7335 1.0000
69.5100 19.8545 1.0000
69.5200 21.1411 1.0000
69.5300 9.7081 1.0000
69.5400 18.9257 1.0000
69.5500 13.7880 1.0000
69.5600 22.2822 1.0000
69.5700 18.0499 1.0000
69.5800 19.4544 1.0000
69.5900 10.3895 1.0000
69.6000 17.9017 1.0000
69.6100 24.6227 1.0000
69.6200 26.1948 1.0000
69.6300 21.9467 1.0000
69.6400 17.4428 1.0000
69.6500 17.4783 1.0000
69.6600 18.3098 1.0000
69.6700 23.8187 1.0000
69.6800 11.6001 1.0000
69.6900 20.7887 1.0000
69.7000 18.7370 1.0000
69.7100 16.9631 1.0000
69.7200 21.3332 1.0000
69.7300 21.3371 1.0000
69.7400 16.2726 1.0000
69.7500 15.9777 1.0000
69.7600 15.3705 1.0000
69.7700 19.3238 1.0000
69.7800 17.1923 1.0000
69.7900 15.2291 1.0000
69.8000 14.6068 1.0000
69.8100 16.5314 1.0000
69.8200 28.1828 1.0000
69.8300 15.0765 1.0000
69.8400 10.9423 1.0000
69.8500 15.9126 1.0000
69.8600 8.2045 1.0000
69.8700 12.1786 1.0000
69.8800 21.4774 1.0000
69.8900 19.1111 1.0000
69.9000 27.8625 1.0000
69.9100 17.2262 1.0000
69.9200 10.4152 1.0000
69.9300 18.2966 1.0000
69.9400 19.0365 1.0000
69.9500 16.6864 1.0000
69.9600 19.2110 1.0000
69.9700 12.6769 1.0000
69.9800 18.7138 1.0000
69.9900 23.6570 1.0000
70.0000 29.7151 1.0000
70.0100 17.8244 1.0000
70.0200 20.1941 1.0000
70.0300 17.3360 1.0000
70.0400 27.6856 1.0000
70.0500 13.0534 1.0000
70.0600 12.8877 1.0000
70.0700 18.9289 1.0000
70.0800 17.6610 1.0000
70.0900 21.7272 1.0000
70.1000 18.5506 1.0000
70.1100 12.6542 1.0000
70.1200 19.7396 1.0000
70.1300 14.0675 1.0000
70.1400 25.4077 1.0000
70.1500 21.2633 1.0000
70.1600 21.8937 1.0000
70.1700 16.1568 1.0000
70.1800 22.0706 1.0000
70.1900 19.2497 1.0000
70.2000 22.8836 1.0000
70.2100 7.8620 1.0000
70.2200 13.4349 1.0000
70.2300 24.6517 1.0000
70.2400 14.3241 1.0000
70.2500 18.0186 1.0000
70.2600 15.3276 1.0000
70.2700 18.7363 1.0000
70.2800 18.4993 1.0000
70.2900 18.3922 1.0000
70.3000 14.5551 1.0000
70.3100 19.1839 1.0000
70.3200 20.2538 1.0000
70.3300 20.8951 1.0000
70.3400 18.1528 1.0000
70.3500 21.5693 1.0000
70.3600 26.6689 1.0000
70.3700 28.9926 1.0000
70.3800 25.8025 1.0000
70.3900 21.4067 1.0000
70.4000 23.9140 1.0000
70.4100 17.9963 1.0000
70.4200 16.8218 1.0000
70.4300 16.4544 1.0000
70.4400 9.6796 1.0000
70.4500 28.8570 1.0000
70.4600 20.9190 1.0000
70.4700 13.0325 1.0000
70.4800 30.9470 1.0000
70.4900 17.1299 1.0000
70.5000 22.3060 1.0000
70.5100 20.9609 1.0000
70.5200 29.2459 1.0000
70.5300 14.6940 1.0000
70.5400 19.3435 1.0000
70.5500 14.3354 1.0000
70.5600 22.0730 1.0000
70.5700 30.0921 1.0000
70.5800 26.3260 1.0000
70.5900 22.3407 1.0000
70.6000 21.0621 1.0000
70.6100 20.3604 1.0000
70.6200 11.2285 1.0000
70.6300 20.0378 1.0000
70.6400 19.8110 1.0000
70.6500 23.2486 1.0000
70.6600 24.4191 1.0000
70.6700 14.1304 1.0000
70.6800 16.5970 1.0000
70.6900 24.7578 1.0000
70.7000 20.0823 1.0000
70.7100 22.2811 1.0000
70.7200 10.9828 1.0000
70.7300 11.4897 1.0000
70.7400 24.5003 1.0000
70.7500 20.5736 1.0000
70.7600 17.3918 1.0000
70.7700 19.8697 1.0000
70.7800 24.9697 1.0000
70.7900 15.4300 1.0000
70.8000 17.7600 1.0000
70.8100 20.0408 1.0000
70.8200 30.8313 1.0000
70.8300 15.1129 1.0000
70.8400 23.8144 1.0000
70.8500 20.4108 1.0000
70.8600 11.2687 1.0000
70.8700 20.5656 1.0000
70.8800 20.2109 1.0000
70.8900 15.8179 1.0000
70.9000 17.8784 1.0000
70.9100 22.1225 1.0000
70.9200 29.5538 1.0000
70.9300 20.2232 1.0000
70.9400 24.3190 1.0000
70.9500 20.9400 1.0000
70.9600 12.5193 1.0000
70.9700 21.7762 1.0000
70.9800 17.5156 1.0000
70.9900 21.8364 1.0000
71.0000 24.5954 1.0000
71.0100 16.7845 1.0000
71.0200 12.1051 1.0000
71.0300 20.7223 1.0000
71.0400 19.0376 1.0000
71.0500 20.7871 1.0000
71.0600 20.9883 1.0000
71.0700 20.6119 1.0000
71.0800 19.9556 1.0000
71.0900 25.9268 1.0000
71.1000 25.6444 1.0000
71.1100 17.2507 1.0000
71.1200 18.8771 1.0000
71.1300 21.7524 1.0000
71.1400 16.4589 1.0000
71.1500 17.3560 1.0000
71.1600 17.1666 1.0000
71.1700 20.2024 1.0000
71.1800 18.6097 1.0000
71.1900 17.9890 1.0000
71.2000 29.7383 1.0000
71.2100 15.9037 1.0000
71.2200 19.2450 1.0000
71.2300 19.2090 1.0000
71.2400 19.4716 1.0000
71.2500 20.3653 1.0000
71.2600 23.4801 1.0000
71.2700 14.0755 1.0000
71.2800 21.6693 1.0000
71.2900 14.9045 1.0000
71.3000 22.1118 1.0000
71.3100 14.0216 1.0000
71.3200 18.4293 1.0000
71.3300 19.4691 1.0000
71.3400 26.2295 1.0000
71.3500 21.7182 1.0000
71.3600 16.1171 1.0000
71.3700 22.6974 1.0000
71.3800 20.8669 1.0000
71.3900 13.3316 1.0000
71.4000 19.7909 1.0000
71.4100 13.4970 1.0000
71.4200 20.9008 1.0000
71.4300 23.6291 1.0000
71.4400 19.1781 1.0000
71.4500 26.4422 1.0000
71.4600 23.2434 1.0000
71.4700 19.9682 1.0000
71.4800 12.7274 1.0000
71.4900 25.0306 1.0000
71.5000 18.2455 1.0000
71.5100 12.1915 1.0000
71.5200 17.9955 1.0000
71.5300 23.9039 1.0000
71.5400 13.9557 1.0000
71.5500 19.5877 1.0000
71.5600 14.2143 1.0000
71.5700 24.2349 1.0000
71.5800 20.6092 1.0000
71.5900 22.2310 1.0000
71.6000 22.7998 1.0000
71.6100 20.3860 1.0000
71.6200 22.8982 1.0000
71.6300 16.5817 1.0000
71.6400 27.5322 1.0000
71.6500 19.4517 1.0000
71.6600 16.7844 1.0000
71.6700 18.7229 1.0000
71.6800 19.5721 1.0000
71.6900 25.1831 1.0000
71.7000 19.2567 1.0000
71.7100 20.6241 1.0000
71.7200 16.2177 1.0000
71.7300 22.5954 1.0000
71.7400 18.6295 1.0000
71.7500 20.4111 1.0000
71.7600 24.1359 1.0000
71.7700 20.1887 1.0000
71.7800 17.8155 1.0000
71.7900 22.0742 1.0000
71.8000 27.9468 1.0000
71.8100 23.4285 1.0000
71.8200 23.1877 1.0000
71.8300 25.0692 1.0000
71.8400 15.3500 1.0000
71.8500 29.3669 1.0000
71.8600 24.0451 1.0000
71.8700 16.4963 1.0000
71.8800 19.2146 1.0000
71.8900 15.9401 1.0000
71.9000 26.7197 1.0000
71.9100 22.1899 1.0000
71.9200 16.9120 1.0000
71.9300 15.7115 1.0000
71.9400 19.4019 1.0000
71.9500 21.1009 1.0000
71.9600 12.1062 1.0000
71.9700 18.1798 1.0000
71.9800 16.6220 1.0000
71.9900 13.1235 1.0000
72.0000 14.1028 1.0000
72.0100 25.8339 1.0000
72.0200 18.7978 1.0000
72.0300 19.2006 1.0000
72.0400 23.4502 1.0000
72.0500 21.9898 1.0000
72.0600 20.6108 1.0000
72.0700 18.2900 1.0000
72.0800 16.8373 1.0000
72.0900 21.0661 1.0000
72.1000 23.9057 1.0000
72.1100 18.4282 1.0000
72.1200 19.0176 1.0000
72.1300 21.6311 1.0000
72.1400 24.1736 1.0000
72.1500 17.7333 1.0000
72.1600 16.4410 1.0000
72.1700 20.2544 1.0000
72.1800 17.8562 1.0000
72.1900 15.8226 1.0000
72.2000 21.3468 1.0000
72.2100 17.7370 1.0000
72.2200 11.6180 1.0000
72.2300 19.7802 1.0000
72.2400 13.4435 1.0000
72.2500 23.1655 1.0000
72.2600 19.1844 1.0000
72.2700 24.2536 1.0000
72.2800 27.3143 1.0000
72.2900 13.4398 1.0000
72.3000 13.5272 1.0000
72.3100 16.0353 1.0000
72.3200 23.2241 1.0000
72.3300 16.7099 1.0000
72.3400 12.6887 1.0000
72.3500 17.5669 1.0000
72.3600 28.3791 1.0000
72.3700 25.3718 1.0000
72.3800 11.0846 1.0000
72.3900 22.2598 1.0000
72.4000 17.6772 1.0000
72.4100 21.7027 1.0000
72.4200 29.0353 1.0000
72.4300 17.3261 1.0000
72.4400 20.5268 1.0000
72.4500 12.1696 1.0000
72.4600 22.9477 1.0000
72.4700 10.1508 1.0000
72.4800 23.4809 1.0000
72.4900 16.5240 1.0000
72.5000 13.9918 1.0000
72.5100 21.9591 1.0000
72.5200 14.3081 1.0000
72.5300 10.9166 1.0000
72.5400 13.7945 1.0000
72.5500 12.8583 1.0000
72.5600 21.8134 1.0000
72.5700 22.7178 1.0000
72.5800 21.9185 1.0000
72.5900 16.1744 1.0000
72.6000 17.5987 1.0000
72.6100 17.8973 1.0000
72.6200 35.0251 1.0000
72.6300 21.7279 1.0000
72.6400 15.7777 1.0000
72.6500 12.1014 1.0000
72.6600 21.2296 1.0000
72.6700 20.5954 1.0000
72.6800 14.7509 1.0000
72.6900 13.4139 1.0000
72.7000 17.3816 1.0000
72.7100 12.2602 1.0000
72.7200 19.2745 1.0000
72.7300 20.9654 1.0000
72.7400 26.6897 1.0000
72.7500 22.2491 1.0000
72.7600 19.3380 1.0000
72.7700 20.5228 1.0000
72.7800 16.2096 1.0000
72.7900 21.1339 1.0000
72.8000 21.6716 1.0000
72.8100 20.5985 1.0000
72.8200 17.4025 1.0000
72.8300 10.1550 1.0000
72.8400 14.4824 1.0000
72.8500 15.8786 1.0000
72.8600 15.2132 1.0000
72.8700 15.9007 1.0000
72.8800 15.0584 1.0000
72.8900 18.6826 1.0000
72.9000 22.8139 1.0000
72.9100 20.1375 1.0000
72.9200 15.8922 1.0000
72.9300 12.8090 1.0000
72.9400 14.1873 1.0000
72.9500 17.7196 1.0000
72.9600 19.3078 1.0000
72.9700 14.3082 1.0000
72.9800 20.6528 1.0000
72.9900 18.4419 1.0000
73.0000 17.5015 1.0000
73.0100 20.9522 1.0000
73.0200 15.9804 1.0000
73.0300 8.5299 1.0000
73.0400 18.0657 1.0000
73.0500 24.0098 1.0000
73.0600 15.9661 1.0000
73.0700 15.2091 1.0000
73.0800 10.5215 1.0000
73.0900 13.7480 1.0000
73.1000 19.4170 1.0000
73.1100 21.9644 1.0000
73.1200 13.4360 1.0000
73.1300 18.3775 1.0000
73.1400 12.4482 1.0000
73.1500 15.2902 1.0000
73.1600 28.2442 1.0000
73.1700 17.3186 1.0000
73.1800 19.4306 1.0000
73.1900 16.7955 1.0000
73.2000 12.8210 1.0000
73.2100 17.1927 1.0000
73.2200 12.2226 1.0000
73.2300 12.5337 1.0000
73.2400 15.6713 1.0000
73.2500 19.2454 1.0000
73.2600 15.7759 1.0000
73.2700 12.9536 1.0000
73.2800 15.9387 1.0000
73.2900 22.3091 1.0000
73.3000 18.1781 1.0000
73.3100 15.3883 1.0000
73.3200 21.8396 1.0000
73.3300 14.2812 1.0000
73.3400 13.9171 1.0000
73.3500 19.8667 1.0000
73.3600 20.2549 1.0000
73.3700 12.2151 1.0000
73.3800 14.6190 1.0000
73.3900 21.7585 1.0000
73.4000 24.4647 1.0000
73.4100 15.9874 1.0000
73.4200 17.1996 1.0000
73.4300 17.0893 1.0000
73.4400 17.8146 1.0000
73.4500 16.2109 1.0000
73.4600 13.6684 1.0000
73.4700 19.0007 1.0000
73.4800 17.4562 1.0000
73.4900 10.5564 1.0000
73.5000 18.9198 1.0000
73.5100 10.9988 1.0000
73.5200 8.3607 1.0000
73.5300 10.9664 1.0000
73.5400 16.5040 1.0000
73.5500 24.2480 1.0000
73.5600 11.1543 1.0000
73.5700 20.0514 1.0000
73.5800 19.1392 1.0000
73.5900 22.1099 1.0000
73.6000 17.2075 1.0000
73.6100 10.8621 1.0000
73.6200 20.8935 1.0000
73.6300 12.7002 1.0000
73.6400 24.0334 1.0000
73.6500 13.9936 1.0000
73.6600 20.6037 1.0000
73.6700 6.4664 1.0000
73.6800 14.7202 1.0000
73.6900 9.0266 1.0000
73.7000 17.8067 1.0000
73.7100 26.0590 1.0000
73.7200 15.4600 1.0000
73.7300 14.3707 1.0000
73.7400 13.2660 1.0000
73.7500 18.8607 1.0000
73.7600 15.5259 1.0000
73.7700 20.7012 1.0000
73.7800 19.9044 1.0000
73.7900 19.0718 1.0000
73.8000 24.4453 1.0000
73.8100 17.9169 1.0000
73.8200 15.8177 1.0000
73.8300 17.6682 1.0000
73.8400 18.8477 1.0000
73.8500 23.9286 1.0000
73.8600 19.8332 1.0000
73.8700 16.9538 1.0000
73.8800 19.8923 1.0000
73.8900 14.7313 1.0000
73.9000 20.4944 1.0000
73.9100 22.6025 1.0000
73.9200 16.9539 1.0000
73.9300 16.2499 1.0000
73.9400 15.3938 1.0000
73.9500 9.1458 1.0000
73.9600 17.0730 1.0000
73.9700 22.3920 1.0000
73.9800 15.1612 1.0000
73.9900 7.9564 1.0000
74.0000 20.4300 1.0000
74.0100 19.1566 1.0000
74.0200 16.4325 1.0000
74.0300 22.0934 1.0000
74.0400 12.9530 1.0000
74.0500 14.2971 1.0000
74.0600 12.2701 1.0000
74.0700 19.1734 1.0000
74.0800 17.9039 1.0000
74.0900 8.5465 1.0000
74.1000 15.5035 1.0000
74.1100 14.2903 1.0000
74.1200 11.7433 1.0000
74.1300 20.1710 1.0000
74.1400 11.2870 1.0000
74.1500 22.2189 1.0000
74.1600 20.9014 1.0000
74.1700 17.2202 1.0000
74.1800 12.2650 1.0000
74.1900 14.6487 1.0000
74.2000 15.0716 1.0000
74.2100 17.5789 1.0000
74.2200 22.3500 1.0000
74.2300 14.5060 1.0000
74.2400 14.1892 1.0000
74.2500 16.1025 1.0000
74.2600 16.3361 1.0000
74.2700 17.4366 1.0000
74.2800 21.7831 1.0000
74.2900 18.2303 1.0000
74.3000 16.6454 1.0000
74.3100 18.6541 1.0000
74.3200 11.8671 1.0000
74.3300 20.8398 1.0000
74.3400 16.6297 1.0000
74.3500 7.5352 1.0000
74.3600 14.2679 1.0000
74.3700 24.2329 1.0000
74.3800 8.2519 1.0000
74.3900 16.9109 1.0000
74.4000 19.0974 1.0000
74.4100 9.1415 1.0000
74.4200 24.2569 1.0000
74.4300 22.5901 1.0000
74.4400 19.9155 1.0000
74.4500 16.1293 1.0000
74.4600 20.9559 1.0000
74.4700 20.1609 1.0000
74.4800 23.0665 1.0000
74.4900 13.5725 1.0000
74.5000 17.8346 1.0000
74.5100 20.7907 1.0000
74.5200 15.4908 1.0000
74.5300 11.9904 1.0000
74.5400 19.8477 1.0000
74.5500 21.5065 1.0000
74.5600 19.7960 1.0000
74.5700 16.5687 1.0000
74.5800 14.7730 1.0000
74.5900 20.7446 1.0000
74.6000 18.6512 1.0000
74.6100 15.6417 1.0000
74.6200 19.2448 1.0000
74.6300 16.2310 1.0000
74.6400 12.7590 1.0000
74.6500 17.8288 1.0000
74.6600 18.3835 1.0000
74.6700 14.8939 1.0000
74.6800 19.5248 1.0000
74.6900 18.9257 1.0000
74.7000 16.0120 1.0000
74.7100 23.8956 1.0000
74.7200 22.0423 1.0000
74.7300 20.0216 1.0000
74.7400 15.8396 1.0000
74.7500 22.6950 1.0000
74.7600 15.9222 1.0000
74.7700 21.7069 1.0000
74.7800 19.4385 1.0000
74.7900 17.9309 1.0000
74.8000 10.3135 1.0000
74.8100 28.7740 1.0000
74.8200 14.2289 1.0000
74.8300 14.7470 1.0000
74.8400 23.6768 1.0000
74.8500 14.0133 1.0000
74.8600 10.8103 1.0000
74.8700 13.0504 1.0000
74.8800 11.8515 1.0000
74.8900 24.2012 1.0000
74.9000 19.1796 1.0000
74.9100 12.1202 1.0000
74.9200 17.1938 1.0000
74.9300 12.3770 1.0000
74.9400 22.1417 1.0000
74.9500 14.1793 1.0000
74.9600 16.9084 1.0000
74.9700 15.0682 1.0000
74.9800 18.2643 1.0000
74.9900 15.5291 1.0000
75.0000 10.4263 1.0000
75.0100 15.8450 1.0000
75.0200 18.2091 1.0000
75.0300 20.1128 1.0000
75.0400 17.8240 1.0000
75.0500 22.5593 1.0000
75.0600 18.5538 1.0000
75.0700 15.2887 1.0000
75.0800 14.1829 1.0000
75.0900 18.6426 1.0000
75.1000 16.6193 1.0000
75.1100 23.3446 1.0000
75.1200 16.8193 1.0000
75.1300 21.0359 1.0000
75.1400 18.4221 1.0000
75.1500 12.2426 1.0000
75.1600 11.8740 1.0000
75.1700 17.7545 1.0000
75.1800 11.8290 1.0000
75.1900 18.8719 1.0000
75.2000 12.9590 1.0000
75.2100 22.8380 1.0000
75.2200 6.7327 1.0000
75.2300 24.4409 1.0000
75.2400 13.6297 1.0000
75.2500 15.8535 1.0000
75.2600 22.9652 1.0000
75.2700 21.1535 1.0000
75.2800 23.1264 1.0000
75.2900 21.5292 1.0000
75.3000 19.1889 1.0000
75.3100 25.0515 1.0000
75.3200 16.8562 1.0000
75.3300 15.3417 1.0000
75.3400 13.7937 1.0000
75.3500 12.0940 1.0000
75.3600 19.7491 1.0000
75.3700 16.1883 1.0000
75.3800 24.1513 1.0000
75.3900 19.6052 1.0000
75.4000 27.8583 1.0000
75.4100 15.2943 1.0000
75.4200 14.8653 1.0000
75.4300 13.1980 1.0000
75.4400 14.2869 1.0000
75.4500 20.3029 1.0000
75.4600 20.6574 1.0000
75.4700 16.7876 1.0000
75.4800 24.6603 1.0000
75.4900 25.3308 1.0000
75.5000 21.3284 1.0000
75.5100 29.1205 1.0000
75.5200 29.2149 1.0000
75.5300 19.8114 1.0000
75.5400 13.3857 1.0000
75.5500 23.1091 1.0000
75.5600 17.1928 1.0000
75.5700 19.8958 1.0000
75.5800 15.8769 1.0000
75.5900 20.8557 1.0000
75.6000 16.7092 1.0000
75.6100 17.7229 1.0000
75.6200 18.8423 1.0000
75.6300 21.1852 1.0000
75.6400 27.5902 1.0000
75.6500 18.2729 1.0000
75.6600 25.3795 1.0000
75.6700 22.6864 1.0000
75.6800 22.4957 1.0000
75.6900 14.9398 1.0000
75.7000 32.1467 1.0000
75.7100 23.4820 1.0000
75.7200 20.8053 1.0000
75.7300 24.0515 1.0000
75.7400 20.4328 1.0000
75.7500 26.7326 1.0000
75.7600 20.2716 1.0000
75.7700 16.2929 1.0000
75.7800 21.4495 1.0000
75.7900 21.2354 1.0000
75.8000 23.2882 1.0000
75.8100 21.7565 1.0000
75.8200 19.2925 1.0000
75.8300 16.8504 1.0000
75.8400 17.3172 1.0000
75.8500 33.1204 1.0000
75.8600 22.8941 1.0000
75.8700 15.8432 1.0000
75.8800 19.3603 1.0000
75.8900 13.3301 1.0000
75.9000 15.6809 1.0000
75.9100 13.1472 1.0000
75.9200 25.0089 1.0000
75.9300 25.2237 1.0000
75.9400 15.2994 1.0000
75.9500 24.5871 1.0000
75.9600 20.4188 1.0000
75.9700 22.4827 1.0000
75.9800 20.9532 1.0000
75.9900 26.4575 1.0000
76.0000 23.0214 1.0000
76.0100 21.3809 1.0000
76.0200 13.2851 1.0000
76.0300 21.4998 1.0000
76.0400 15.9094 1.0000
76.0500 11.1305 1.0000
76.0600 13.8559 1.0000
76.0700 31.4071 1.0000
76.0800 20.6261 1.0000
76.0900 15.7417 1.0000
76.1000 11.6641 1.0000
76.1100 13.2807 1.0000
76.1200 20.7165 1.0000
76.1300 21.0538 1.0000
76.1400 30.0602 1.0000
76.1500 21.5011 1.0000
76.1600 21.2920 1.0000
76.1700 20.2531 1.0000
76.1800 16.9031 1.0000
76.1900 19.2983 1.0000
76.2000 17.3095 1.0000
76.2100 21.7867 1.0000
76.2200 21.8543 1.0000
76.2300 25.7342 1.0000
76.2400 17.3895 1.0000
76.2500 13.8318 1.0000
76.2600 20.3797 1.0000
76.2700 13.3522 1.0000
76.2800 16.0180 1.0000
76.2900 18.3660 1.0000
76.3000 17.3304 1.0000
76.3100 22.0529 1.0000
76.3200 11.0543 1.0000
76.3300 16.2497 1.0000
76.3400 27.1379 1.0000
76.3500 18.8281 1.0000
76.3600 12.1763 1.0000
76.3700 20.8390 1.0000
76.3800 17.3587 1.0000
76.3900 19.7891 1.0000
76.4000 12.8976 1.0000
76.4100 22.9464 1.0000
76.4200 12.9819 1.0000
76.4300 19.0711 1.0000
76.4400 18.7071 1.0000
76.4500 21.6060 1.0000
76.4600 27.8839 1.0000
76.4700 13.4195 1.0000
76.4800 17.1134 1.0000
76.4900 19.6754 1.0000
76.5000 20.7105 1.0000
76.5100 30.4116 1.0000
76.5200 18.3721 1.0000
76.5300 27.9688 1.0000
76.5400 14.7111 1.0000
76.5500 18.5545 1.0000
76.5600 13.4525 1.0000
76.5700 13.3954 1.0000
76.5800 23.7875 1.0000
76.5900 18.5627 1.0000
76.6000 23.0282 1.0000
76.6100 22.8571 1.0000
76.6200 18.0373 1.0000
76.6300 17.6760 1.0000
76.6400 20.0644 1.0000
76.6500 21.2457 1.0000
76.6600 11.5050 1.0000
76.6700 20.0154 1.0000
76.6800 19.7558 1.0000
76.6900 19.2397 1.0000
76.7000 22.3582 1.0000
76.7100 18.9019 1.0000
76.7200 11.4089 1.0000
76.7300 22.9419 1.0000
76.7400 21.9859 1.0000
76.7500 25.4030 1.0000
76.7600 17.4850 1.0000
76.7700 21.8219 1.0000
76.7800 16.9577 1.0000
76.7900 19.0301 1.0000
76.8000 15.9571 1.0000
76.8100 11.3439 1.0000
76.8200 14.3028 1.0000
76.8300 15.8653 1.0000
76.8400 17.6130 1.0000
76.8500 17.7982 1.0000
76.8600 17.1216 1.0000
76.8700 14.8652 1.0000
76.8800 8.8594 1.0000
76.8900 21.8900 1.0000
76.9000 15.2701 1.0000
76.9100 15.7806 1.0000
76.9200 18.1947 1.0000
76.9300 17.5257 1.0000
76.9400 15.9489 1.0000
76.9500 16.1413 1.0000
76.9600 15.1383 1.0000
76.9700 13.7101 1.0000
76.9800 21.3949 1.0000
76.9900 18.0305 1.0000
77.0000 19.7032 1.0000
77.0100 18.2108 1.0000
77.0200 18.3339 1.0000
77.0300 24.0278 1.0000
77.0400 22.0674 1.0000
77.0500 12.2859 1.0000
77.0600 12.1796 1.0000
77.0700 12.8856 1.0000
77.0800 20.2193 1.0000
77.0900 13.5897 1.0000
77.1000 19.3875 1.0000
77.1100 19.2175 1.0000
77.1200 13.0976 1.0000
77.1300 20.8524 1.0000
77.1400 14.2747 1.0000
77.1500 13.3086 1.0000
77.1600 16.2826 1.0000
77.1700 15.1760 1.0000
77.1800 12.3300 1.0000
77.1900 13.9522 1.0000
77.2000 26.5014 1.0000
77.2100 19.2649 1.0000
77.2200 12.8636 1.0000
77.2300 21.7826 1.0000
77.2400 25.7955 1.0000
77.2500 15.0775 1.0000
77.2600 20.5391 1.0000
77.2700 17.8720 1.0000
77.2800 16.4319 1.0000
77.2900 18.5977 1.0000
77.3000 15.3755 1.0000
77.3100 11.0999 1.0000
77.3200 14.7139 1.0000
77.3300 14.1666 1.0000
77.3400 13.9655 1.0000
77.3500 17.5916 1.0000
77.3600 24.4795 1.0000
77.3700 17.6329 1.0000
77.3800 20.4886 1.0000
77.3900 16.8149 1.0000
77.4000 17.0579 1.0000
77.4100 17.3438 1.0000
77.4200 13.1353 1.0000
77.4300 13.8154 1.0000
77.4400 7.9919 1.0000
77.4500 18.8739 1.0000
77.4600 23.9631 1.0000
77.4700 22.0958 1.0000
77.4800 16.4815 1.0000
77.4900 18.2877 1.0000
77.5000 9.0508 1.0000
77.5100 16.9326 1.0000
77.5200 14.2442 1.0000
77.5300 25.8073 1.0000
77.5400 16.3309 1.0000
77.5500 14.3098 1.0000
77.5600 17.5889 1.0000
77.5700 14.9414 1.0000
77.5800 17.3969 1.0000
77.5900 22.5552 1.0000
77.6000 19.2979 1.0000
77.6100 14.9344 1.0000
77.6200 15.9482 1.0000
77.6300 13.3593 1.0000
77.6400 15.2842 1.0000
77.6500 25.0693 1.0000
77.6600 12.0340 1.0000
77.6700 7.0601 1.0000
77.6800 16.4318 1.0000
77.6900 14.5123 1.0000
77.7000 16.8406 1.0000
77.7100 13.6160 1.0000
77.7200 17.0265 1.0000
77.7300 22.0998 1.0000
77.7400 16.3269 1.0000
77.7500 21.3461 1.0000
77.7600 8.7822 1.0000
77.7700 17.8887 1.0000
77.7800 13.9049 1.0000
77.7900 10.8060 1.0000
77.8000 19.0351 1.0000
77.8100 9.7783 1.0000
77.8200 16.1330 1.0000
77.8300 20.4894 1.0000
77.8400 26.9043 1.0000
77.8500 12.8440 1.0000
77.8600 14.4408 1.0000
77.8700 19.8528 1.0000
77.8800 13.9289 1.0000
77.8900 14.6134 1.0000
77.9000 15.1181 1.0000
77.9100 15.2447 1.0000
77.9200 15.1493 1.0000
77.9300 18.9414 1.0000
77.9400 22.4900 1.0000
77.9500 25.0475 1.0000
77.9600 12.2657 1.0000
77.9700 24.4181 1.0000
77.9800 22.1197 1.0000
77.9900 18.4183 1.0000
78.0000 18.8884 1.0000
78.0100 14.9041 1.0000
78.0200 19.8915 1.0000
78.0300 8.5100 1.0000
78.0400 19.2978 1.0000
78.0500 17.1177 1.0000
78.0600 11.1118 1.0000
78.0700 12.1396 1.0000
78.0800 12.5179 1.0000
78.0900 15.3289 1.0000
78.1000 21.1831 1.0000
78.1100 20.8803 1.0000
78.1200 17.5767 1.0000
78.1300 18.4265 1.0000
78.1400 10.8847 1.0000
78.1500 17.7769 1.0000
78.1600 20.6152 1.0000
78.1700 19.1983 1.0000
78.1800 16.0414 1.0000
78.1900 25.4416 1.0000
78.2000 17.0477 1.0000
78.2100 18.8954 1.0000
78.2200 14.3559 1.0000
78.2300 18.5539 1.0000
78.2400 17.3646 1.0000
78.2500 13.6607 1.0000
78.2600 18.4083 1.0000
78.2700 11.6819 1.0000
78.2800 15.4178 1.0000
78.2900 17.5454 1.0000
78.3000 20.3329 1.0000
78.3100 10.6718 1.0000
78.3200 15.7890 1.0000
78.3300 17.5547 1.0000
78.3400 13.4134 1.0000
78.3500 17.3647 1.0000
78.3600 21.0120 1.0000
78.3700 11.6562 1.0000
78.3800 26.8507 1.0000
78.3900 16.1492 1.0000
78.4000 10.9940 1.0000
78.4100 12.0872 1.0000
78.4200 22.1556 1.0000
78.4300 17.2667 1.0000
78.4400 15.6179 1.0000
78.4500 19.7747 1.0000
78.4600 17.7943 1.0000
78.4700 12.5981 1.0000
78.4800 16.5312 1.0000
78.4900 15.5044 1.0000
78.5000 7.8569 1.0000
78.5100 20.9063 1.0000
78.5200 15.9146 1.0000
78.5300 10.1647 1.0000
78.5400 19.1661 1.0000
78.5500 19.6708 1.0000
78.5600 18.4384 1.0000
78.5700 19.6709 1.0000
78.5800 14.2443 1.0000
78.5900 16.4062 1.0000
78.6000 14.2785 1.0000
78.6100 17.6874 1.0000
78.6200 27.0686 1.0000
78.6300 8.6058 1.0000
78.6400 18.3976 1.0000
78.6500 10.9903 1.0000
78.6600 18.2057 1.0000
78.6700 22.3125 1.0000
78.6800 16.3246 1.0000
78.6900 7.9123 1.0000
78.7000 9.4067 1.0000
78.7100 14.8889 1.0000
78.7200 13.2623 1.0000
78.7300 14.9729 1.0000
78.7400 11.2733 1.0000
78.7500 21.9749 1.0000
78.7600 22.9839 1.0000
78.7700 9.0718 1.0000
78.7800 21.7298 1.0000
78.7900 14.5482 1.0000
78.8000 16.9213 1.0000
78.8100 19.6023 1.0000
78.8200 14.6873 1.0000
78.8300 14.3876 1.0000
78.8400 20.2544 1.0000
78.8500 22.3718 1.0000
78.8600 17.2210 1.0000
78.8700 25.2526 1.0000
78.8800 14.2138 1.0000
78.8900 15.1051 1.0000
78.9000 15.3904 1.0000
78.9100 20.9577 1.0000
78.9200 17.9799 1.0000
78.9300 23.9641 1.0000
78.9400 10.5864 1.0000
78.9500 18.1973 1.0000
78.9600 18.7702 1.0000
78.9700 16.5111 1.0000
78.9800 20.8135 1.0000
78.9900 13.9533 1.0000
79.0000 23.0216 1.0000
79.0100 14.6081 1.0000
79.0200 13.7934 1.0000
79.0300 13.3791 1.0000
79.0400 16.2400 1.0000
79.0500 19.1523 1.0000
79.0600 14.1209 1.0000
79.0700 19.5238 1.0000
79.0800 20.6272 1.0000
79.0900 10.5211 1.0000
79.1000 13.9867 1.0000
79.1100 17.7537 1.0000
79.1200 21.7137 1.0000
79.1300 18.6311 1.0000
79.1400 21.7143 1.0000
79.1500 27.0890 1.0000
79.1600 17.8543 1.0000
79.1700 13.6713 1.0000
79.1800 18.6557 1.0000
79.1900 20.2752 1.0000
79.2000 18.2355 1.0000
79.2100 22.6249 1.0000
79.2200 16.5424 1.0000
79.2300 16.6188 1.0000
79.2400 20.2554 1.0000
79.2500 20.0722 1.0000
79.2600 25.5133 1.0000
79.2700 17.8803 1.0000
79.2800 20.7861 1.0000
79.2900 19.2738 1.0000
79.3000 24.1599 1.0000
79.3100 17.7145 1.0000
79.3200 11.3428 1.0000
79.3300 6.1639 1.0000
79.3400 14.9360 1.0000
79.3500 12.2572 1.0000
79.3600 18.5005 1.0000
79.3700 19.2204 1.0000
79.3800 19.2173 1.0000
79.3900 20.4803 1.0000
79.4000 23.2548 1.0000
79.4100 13.0437 1.0000
79.4200 20.3338 1.0000
79.4300 12.7114 1.0000
79.4400 23.1162 1.0000
79.4500 15.8579 1.0000
79.4600 23.1718 1.0000
79.4700 25.9100 1.0000
79.4800 23.8108 1.0000
79.4900 11.2469 1.0000
79.5000 9.4842 1.0000
79.5100 13.3332 1.0000
79.5200 19.7914 1.0000
79.5300 10.5289 1.0000
79.5400 14.1489 1.0000
79.5500 15.5216 1.0000
79.5600 17.6226 1.0000
79.5700 19.7054 1.0000
79.5800 15.5058 1.0000
79.5900 27.0346 1.0000
79.6000 20.7919 1.0000
79.6100 16.7800 1.0000
79.6200 19.0303 1.0000
79.6300 17.9293 1.0000
79.6400 17.9104 1.0000
79.6500 25.0258 1.0000
79.6600 17.9376 1.0000
79.6700 15.8618 1.0000
79.6800 17.8175 1.0000
79.6900 19.1232 1.0000
79.7000 14.0141 1.0000
79.7100 19.3085 1.0000
79.7200 20.4160 1.0000
79.7300 16.0821 1.0000
79.7400 23.8989 1.0000
79.7500 17.7598 1.0000
79.7600 16.0243 1.0000
79.7700 11.8914 1.0000
79.7800 26.1447 1.0000
79.7900 16.8367 1.0000
79.8000 14.0780 1.0000
79.8100 22.1707 1.0000
79.8200 14.7688 1.0000
79.8300 22.2128 1.0000
79.8400 15.7929 1.0000
79.8500 21.1240 1.0000
79.8600 15.7861 1.0000
79.8700 15.2588 1.0000
79.8800 14.3455 1.0000
79.8900 15.8209 1.0000
79.9000 17.1727 1.0000
79.9100 12.4898 1.0000
79.9200 16.0718 1.0000
79.9300 21.6985 1.0000
79.9400 9.9711 1.0000
79.9500 18.3770 1.0000
79.9600 20.1273 1.0000
79.9700 17.0558 1.0000
79.9800 21.0418 1.0000
79.9900 22.7968 1.0000
80.0000 16.1878 1.0000
*RAS_INT_END
*RAS_DATA_END
*DSC_DATA_END
